value
-0.0
-0.0
-0.0
-0.0
-0.0
-0.0
-0.0
-0.0
-0.0
-0.0
0.0
0.01
0.01
-0.0
-0.03
-0.05
-0.05
0.0
0.13
0.36
0.66
1.01
1.37
1.72
2.06
2.4
2.79
3.24
3.8
4.42
5.06
5.67
6.22
6.71
7.21
7.78
8.48
9.42
10.51
11.64
12.71
13.65
14.51
15.46
16.7
18.39
20.74
23.57
26.61
29.57
32.28
34.8
37.46
40.69
44.82
50.24
56.6
63.4
70.04
76.18
81.87
87.6
94.09
101.89
111.57
122.64
134.33
145.75
156.31
166.05
175.56
186.22
196.77
209.53
225.14
243.71
264.06
283.23
296.86
300.25
290.06
265.47
228.95
184.39
136.16
87.48
39.86
-6.53
-51.91
-95.97
-137.84
-176.03
-209.68
-238.24
-261.51
-279.13
-290.52
-295.33
-293.21
-284.31
-269.22
-249.43
-226.76
-203.01
-179.6
-157.37
-136.57
-117.01
-98.39
-80.55
-63.76
-48.5
-35.39
-24.43
-15.53
-8.42
-2.61
2.3
6.66
10.55
13.95
16.76
18.94
20.46
21.39
21.91
22.17
22.3
22.34
22.29
22.12
21.79
21.28
20.53
19.56
18.41
17.11
15.68
14.17
12.6
11.02
9.41
7.78
6.14
4.49
2.85
1.25
-0.27
-1.7
-2.98
-4.09
-5.03
-5.78
-6.33
-6.68
-6.85
-6.86
-6.74
-6.52
-6.25
-5.96
-5.68
-5.44
-5.27
-5.16
-5.12
-5.15
-5.24
-5.38
-5.56
-5.77
-6.0
-6.24
-6.49
-6.74
-6.98
-7.22
-7.45
-7.67
-7.88
-8.08
-8.26
-8.43
-8.6
-8.75
-8.9
-9.03
-9.16
-9.28
-9.41
-9.53
-9.66
-9.8
-9.95
-10.11
-10.27
-10.44
-10.61
-10.78
-10.93
-11.08
-11.21
-11.32
-11.42
-11.49
-11.54
-11.54
-11.48
-11.33
-11.04
-10.58
-9.89
-8.95
-7.7
-6.15
-4.27
-2.1
0.34
2.98
5.76
8.62
11.49
14.29
16.95
19.42
21.66
23.67
25.44
27.04
28.52
29.94
31.29
32.5
33.45
33.92
33.69
32.57
30.39
27.06
22.55
16.89
10.19
2.6
-5.67
-14.31
-22.95
-31.17
-38.54
-44.7
-49.45
-52.8
-54.95
-56.24
-56.98
-57.39
-57.48
-57.14
-56.22
-54.66
-52.65
-50.59
-48.97
-48.19
-48.36
-49.26
-50.36
-51.15
-51.38
-51.19
-51.2
-52.18
-54.75
-59.08
-64.83
-71.26
-77.64
-83.47
-88.82
-94.16
-100.32
-108.3
-119.22
-133.96
-152.7
-174.28
-195.89
-213.46
-222.81
-221.22
-208.47
-186.97
-160.74
-133.87
-109.12
-87.55
-68.92
-52.67
-38.56
-26.78
-17.5
-10.46
-4.82
0.52
6.33
12.77
19.31
25.05
29.19
31.44
32.15
32.1
32.16
32.96
34.6
36.73
38.75
40.12
40.57
40.2
39.35
38.43
37.73
37.36
37.2
37.04
36.67
36.02
35.1
34.01
32.82
31.6
30.4
29.27
28.31
27.62
27.22
27.0
26.7
26.09
25.02
23.56
21.99
20.56
19.43
18.57
17.85
17.15
16.46
15.93
15.7
15.82
16.12
16.35
16.23
15.64
14.73
13.8
13.18
13.04
13.32
13.78
14.14
14.22
14.06
13.83
13.69
13.71
13.76
13.71
13.43
12.97
12.5
12.19
12.11
12.16
12.13
11.82
11.17
10.28
9.38
8.71
8.44
8.59
9.05
9.62
10.07
10.24
10.01
9.44
8.66
7.87
7.25
6.9
6.77
6.74
6.68
6.52
6.3
6.17
6.21
6.45
6.76
6.98
6.92
6.54
5.94
5.29
4.78
4.49
4.39
4.36
4.36
4.45
4.78
5.44
6.34
7.21
7.69
7.58
6.94
6.07
5.32
4.93
4.86
4.94
5.01
5.01
5.05
5.25
5.6
5.96
6.17
6.12
5.83
5.43
5.02
4.67
4.41
4.26
4.24
4.39
4.64
4.86
4.91
4.71
4.34
3.96
3.73
3.73
3.89
4.09
4.2
4.21
4.16
4.12
4.16
4.26
4.37
4.45
4.45
4.38
4.26
4.16
4.05
3.98
3.89
3.78
3.62
3.43
3.25
3.13
3.09
3.1
3.12
3.13
3.1
3.08
3.08
3.15
3.28
3.44
3.62
3.82
3.98
4.06
3.99
3.74
3.32
2.89
2.57
2.45
2.49
2.57
2.6
2.5
2.31
2.07
1.81
1.51
1.15
0.74
0.39
0.25
0.42
0.89
1.51
2.07
2.41
2.5
2.45
2.42
2.47
2.57
2.56
2.32
1.85
1.27
0.8
0.59
0.72
1.07
1.5
1.83
2.02
2.03
1.92
1.72
1.45
1.18
0.98
0.95
1.11
1.44
1.85
2.21
2.46
2.54
2.49
2.36
2.24
2.21
2.34
2.59
2.91
3.16
3.19
2.89
2.25
1.36
0.4
-0.38
-0.81
-0.75
-0.26
0.49
1.23
1.69
1.75
1.45
0.99
0.63
0.57
0.88
1.46
2.12
2.68
2.99
3.05
2.84
2.43
1.86
1.21
0.58
0.15
0.06
0.39
1.08
1.93
2.62
2.9
2.67
1.99
1.07
0.22
-0.3
-0.34
0.08
0.79
1.53
2.03
2.12
1.78
1.16
0.48
-0.04
-0.27
-0.15
0.21
0.71
1.26
1.74
2.08
2.21
2.11
1.86
1.59
1.49
1.68
2.16
2.79
3.35
3.61
3.46
2.97
2.28
1.6
1.08
0.74
0.54
0.41
0.33
0.36
0.54
0.89
1.31
1.62
1.65
1.33
0.78
0.19
-0.19
-0.23
0.02
0.37
0.61
0.61
0.43
0.23
0.21
0.49
1.01
1.62
2.12
2.36
2.32
2.01
1.52
0.89
0.15
-0.66
-1.45
-2.08
-2.35
-2.13
-1.48
-0.6
0.14
0.45
0.16
-0.63
-1.64
-2.51
-2.99
-2.99
-2.56
-1.84
-0.96
-0.05
0.8
1.49
1.97
2.22
2.25
2.14
1.93
1.7
1.5
1.38
1.37
1.4
1.4
1.25
0.96
0.59
0.3
0.21
0.36
0.65
0.95
1.11
1.05
0.78
0.38
-0.07
-0.45
-0.7
-0.75
-0.58
-0.23
0.25
0.75
1.19
1.47
1.53
1.35
1.0
0.61
0.35
0.37
0.67
1.13
1.57
1.85
1.93
1.85
1.71
1.54
1.33
1.09
0.87
0.77
0.88
1.19
1.56
1.8
1.75
1.39
0.85
0.32
-0.05
-0.23
-0.29
-0.31
-0.3
-0.19
0.11
0.62
1.25
1.81
2.11
2.09
1.78
1.33
0.85
0.43
0.05
-0.33
-0.69
-1.0
-1.13
-1.03
-0.64
-0.05
0.61
1.16
1.47
1.53
1.43
1.29
1.21
1.21
1.26
1.28
1.29
1.34
1.52
1.84
2.18
2.4
2.34
2.03
1.59
1.22
1.03
1.01
1.05
1.05
0.96
0.84
0.79
0.84
0.93
0.94
0.78
0.44
0.01
-0.35
-0.53
-0.57
-0.57
-0.63
-0.8
-0.97
-0.97
-0.7
-0.17
0.44
0.94
1.2
1.25
1.23
1.3
1.51
1.78
1.91
1.8
1.43
0.92
0.51
0.32
0.43
0.79
1.28
1.78
2.18
2.4
2.37
2.04
1.36
0.39
-0.77
-1.95
-3.01
-3.88
-4.52
-4.98
-5.26
-5.36
-5.25
-4.96
-4.65
-4.46
-4.53
-4.8
-5.06
-5.0
-4.39
-3.19
-1.59
0.08
1.52
2.55
3.16
3.44
3.54
3.61
3.77
4.06
4.45
4.84
5.05
4.97
4.56
3.94
3.28
2.71
2.26
1.92
1.61
1.31
1.04
0.84
0.7
0.59
0.44
0.24
0.08
0.08
0.31
0.75
1.26
1.64
1.75
1.53
1.06
0.52
0.11
-0.02
0.2
0.69
1.27
1.74
1.91
1.73
1.22
0.47
-0.38
-1.23
-1.98
-2.56
-2.87
-2.94
-2.8
-2.58
-2.38
-2.3
-2.33
-2.41
-2.42
-2.29
-2.0
-1.61
-1.17
-0.73
-0.28
0.16
0.55
0.85
0.98
0.94
0.77
0.58
0.43
0.36
0.37
0.43
0.56
0.79
1.18
1.7
2.24
2.63
2.76
2.64
2.45
2.42
2.74
3.45
4.39
5.28
5.84
5.91
5.52
4.79
3.93
3.09
2.39
1.83
1.38
1.0
0.68
0.44
0.28
0.13
-0.13
-0.62
-1.36
-2.19
-2.81
-2.95
-2.53
-1.69
-0.8
-0.19
-0.01
-0.17
-0.43
-0.64
-0.75
-0.83
-0.97
-1.12
-1.13
-0.9
-0.46
0.03
0.36
0.45
0.37
0.32
0.43
0.7
1.04
1.3
1.48
1.65
1.93
2.34
2.8
3.15
3.26
3.11
2.76
2.34
1.95
1.64
1.39
1.14
0.84
0.43
-0.11
-0.74
-1.37
-1.89
-2.2
-2.25
-2.06
-1.74
-1.44
-1.28
-1.33
-1.55
-1.84
-2.04
-2.02
-1.76
-1.27
-0.69
-0.15
0.27
0.52
0.59
0.5
0.3
0.06
-0.13
-0.19
-0.07
0.22
0.56
0.84
0.94
0.85
0.6
0.32
0.12
0.06
0.12
0.22
0.3
0.33
0.33
0.33
0.35
0.37
0.33
0.25
0.15
0.11
0.18
0.38
0.63
0.88
1.03
1.08
1.06
0.97
0.84
0.7
0.54
0.42
0.39
0.52
0.81
1.21
1.59
1.85
1.93
1.82
1.6
1.35
1.12
0.95
0.81
0.68
0.54
0.38
0.21
0.04
-0.1
-0.18
-0.13
0.05
0.39
0.8
1.16
1.36
1.31
0.99
0.45
-0.16
-0.72
-1.11
-1.27
-1.24
-1.1
-0.96
-0.87
-0.89
-0.99
-1.15
-1.35
-1.58
-1.8
-1.93
-1.88
-1.59
-1.06
-0.41
0.19
0.61
0.77
0.72
0.58
0.44
0.36
0.37
0.46
0.65
0.96
1.4
1.94
2.46
2.83
2.92
2.65
2.07
1.28
0.46
-0.17
-0.48
-0.42
-0.09
0.4
0.89
1.24
1.36
1.19
0.72
-0.01
-0.87
-1.65
-2.13
-2.17
-1.77
-1.04
-0.2
0.54
1.04
1.25
1.24
1.1
0.99
0.99
1.16
1.44
1.68
1.73
1.47
0.99
0.5
0.26
0.47
1.12
2.02
2.83
3.24
3.09
2.43
1.55
0.77
0.32
0.24
0.38
0.48
0.36
-0.04
-0.6
-1.19
-1.72
-2.19
-2.67
-3.16
-3.6
-3.82
-3.71
-3.2
-2.37
-1.46
-0.68
-0.23
-0.12
-0.23
-0.33
-0.18
0.29
1.02
1.8
2.36
2.56
2.4
2.06
1.73
1.57
1.58
1.66
1.73
1.75
1.74
1.74
1.78
1.78
1.69
1.44
1.04
0.61
0.29
0.19
0.34
0.67
1.02
1.25
1.26
0.99
0.48
-0.18
-0.86
-1.43
-1.76
-1.76
-1.47
-0.96
-0.4
0.05
0.27
0.21
-0.15
-0.72
-1.37
-1.94
-2.25
-2.16
-1.63
-0.75
0.29
1.29
2.03
2.42
2.43
2.13
1.59
0.97
0.44
0.16
0.29
0.85
1.66
2.46
2.97
2.99
2.56
1.84
1.08
0.44
-0.0
-0.31
-0.55
-0.72
-0.78
-0.69
-0.48
-0.27
-0.18
-0.27
-0.46
-0.57
-0.46
-0.11
0.32
0.62
0.59
0.21
-0.41
-1.04
-1.5
-1.68
-1.6
-1.32
-0.9
-0.43
0.06
0.54
0.93
1.13
1.04
0.65
0.03
-0.63
-1.14
-1.37
-1.28
-0.99
-0.64
-0.33
-0.07
0.16
0.47
0.79
1.02
0.97
0.54
-0.2
-1.01
-1.58
-1.69
-1.31
-0.6
0.18
0.8
1.21
1.43
1.61
1.8
2.0
2.12
2.09
1.88
1.59
1.37
1.32
1.45
1.65
1.74
1.56
1.1
0.48
-0.06
-0.35
-0.29
0.01
0.37
0.63
0.72
0.67
0.56
0.47
0.39
0.3
0.12
-0.18
-0.54
-0.86
-1.0
-0.86
-0.45
0.1
0.59
0.86
0.86
0.71
0.6
0.66
0.91
1.2
1.36
1.31
1.09
0.82
0.65
0.62
0.65
0.61
0.43
0.13
-0.22
-0.48
-0.61
-0.63
-0.61
-0.63
-0.67
-0.73
-0.72
-0.62
-0.39
-0.1
0.17
0.35
0.39
0.27
0.02
-0.26
-0.49
-0.54
-0.39
-0.09
0.23
0.43
0.43
0.22
-0.02
-0.13
0.03
0.46
1.03
1.52
1.72
1.54
1.05
0.43
-0.11
-0.41
-0.45
-0.29
-0.06
0.09
0.11
0.01
-0.15
-0.29
-0.36
-0.36
-0.34
-0.32
-0.27
-0.15
0.06
0.36
0.68
0.94
1.11
1.2
1.26
1.34
1.43
1.49
1.45
1.26
0.94
0.54
0.12
-0.25
-0.51
-0.62
-0.58
-0.42
-0.17
0.09
0.31
0.46
0.54
0.54
0.47
0.34
0.17
0.02
-0.04
0.01
0.12
0.22
0.2
-0.01
-0.44
-1.0
-1.58
-2.02
-2.24
-2.21
-1.96
-1.6
-1.24
-0.92
-0.63
-0.34
-0.04
0.21
0.36
0.34
0.21
0.17
0.4
0.99
1.85
2.7
3.23
3.28
2.85
2.14
1.42
0.9
0.66
0.67
0.86
1.15
1.47
1.74
1.89
1.81
1.47
0.91
0.26
-0.28
-0.58
-0.58
-0.34
-0.01
0.24
0.3
0.15
-0.16
-0.53
-0.84
-0.99
-0.97
-0.79
-0.48
-0.08
0.33
0.66
0.87
0.92
0.84
0.72
0.62
0.6
0.62
0.63
0.5
0.23
-0.15
-0.54
-0.79
-0.79
-0.54
-0.13
0.3
0.64
0.85
0.95
0.97
0.93
0.77
0.46
-0.04
-0.7
-1.41
-2.03
-2.39
-2.4
-2.04
-1.4
-0.67
-0.08
0.2
0.12
-0.19
-0.52
-0.66
-0.48
-0.04
0.52
1.06
1.47
1.74
1.9
1.95
1.89
1.73
1.54
1.36
1.24
1.14
0.98
0.71
0.34
-0.06
-0.39
-0.58
-0.66
-0.67
-0.64
-0.56
-0.39
-0.1
0.29
0.7
1.05
1.3
1.46
1.59
1.74
1.91
2.09
2.19
2.15
1.91
1.43
0.81
0.18
-0.26
-0.4
-0.21
0.2
0.63
0.96
1.08
1.01
0.79
0.49
0.17
-0.11
-0.27
-0.25
-0.01
0.42
0.89
1.24
1.33
1.08
0.57
-0.08
-0.68
-1.05
-1.1
-0.77
-0.1
0.74
1.53
2.02
2.06
1.59
0.71
-0.41
-1.58
-2.63
-3.44
-3.94
-4.11
-3.99
-3.68
-3.27
-2.86
-2.53
-2.26
-2.05
-1.86
-1.7
-1.62
-1.67
-1.82
-1.99
-2.07
-1.94
-1.62
-1.19
-0.82
-0.63
-0.62
-0.67
-0.62
-0.38
0.08
0.64
1.18
1.6
1.86
2.0
2.04
2.01
1.93
1.88
1.94
2.18
2.57
2.94
3.1
2.92
2.46
1.93
1.59
1.54
1.68
1.75
1.51
0.91
0.15
-0.47
-0.7
-0.54
-0.2
0.06
0.09
-0.01
-0.01
0.3
0.9
1.59
2.03
2.04
1.64
1.11
0.76
0.77
1.07
1.43
1.62
1.53
1.26
0.93
0.66
0.39
0.04
-0.47
-1.05
-1.5
-1.63
-1.4
-0.94
-0.49
-0.29
-0.4
-0.73
-1.1
-1.37
-1.46
-1.44
-1.38
-1.36
-1.4
-1.46
-1.49
-1.42
-1.21
-0.8
-0.2
0.55
1.37
2.13
2.7
3.0
3.0
2.73
2.29
1.79
1.35
1.04
0.93
1.04
1.32
1.72
2.13
2.46
2.6
2.54
2.27
1.86
1.39
0.88
0.34
-0.25
-0.86
-1.4
-1.74
-1.76
-1.41
-0.78
-0.05
0.56
0.89
0.88
0.57
0.13
-0.31
-0.59
-0.68
-0.59
-0.45
-0.4
-0.52
-0.84
-1.24
-1.56
-1.67
-1.52
-1.23
-0.95
-0.84
-0.93
-1.12
-1.25
-1.2
-0.95
-0.6
-0.25
0.01
0.21
0.39
0.59
0.76
0.87
0.91
0.87
0.85
0.85
0.88
0.9
0.88
0.9
1.02
1.29
1.66
1.93
1.93
1.59
1.0
0.44
0.14
0.19
0.48
0.81
0.94
0.8
0.47
0.1
-0.18
-0.29
-0.24
-0.11
0.04
0.16
0.23
0.28
0.37
0.55
0.83
1.16
1.39
1.4
1.09
0.52
-0.14
-0.72
-1.09
-1.27
-1.33
-1.34
-1.34
-1.26
-1.12
-0.96
-0.87
-0.91
-1.09
-1.27
-1.31
-1.15
-0.79
-0.33
0.1
0.4
0.53
0.5
0.32
0.05
-0.24
-0.46
-0.52
-0.38
-0.09
0.28
0.63
0.93
1.21
1.5
1.78
1.98
1.98
1.69
1.18
0.63
0.3
0.31
0.59
0.91
1.02
0.8
0.34
-0.11
-0.37
-0.44
-0.43
-0.56
-0.89
-1.35
-1.72
-1.84
-1.64
-1.24
-0.79
-0.44
-0.2
-0.06
0.07
0.21
0.36
0.45
0.42
0.24
-0.04
-0.26
-0.25
0.12
0.82
1.69
2.43
2.82
2.76
2.31
1.66
1.01
0.51
0.25
0.23
0.38
0.61
0.77
0.78
0.54
0.12
-0.39
-0.85
-1.16
-1.3
-1.31
-1.22
-1.04
-0.75
-0.34
0.14
0.57
0.85
0.89
0.74
0.51
0.36
0.38
0.57
0.81
0.96
0.98
0.93
0.97
1.23
1.71
2.26
2.63
2.58
2.01
1.03
-0.07
-0.94
-1.31
-1.12
-0.55
0.11
0.54
0.59
0.34
-0.0
-0.22
-0.2
0.01
0.24
0.4
0.44
0.44
0.46
0.5
0.48
0.3
-0.05
-0.48
-0.81
-0.94
-0.85
-0.66
-0.54
-0.59
-0.78
-1.01
-1.13
-1.05
-0.8
-0.51
-0.27
-0.2
-0.29
-0.48
-0.64
-0.65
-0.48
-0.22
-0.03
-0.09
-0.49
-1.1
-1.71
-2.1
-2.13
-1.88
-1.49
-1.14
-0.93
-0.87
-0.91
-0.99
-1.08
-1.1
-0.96
-0.58
0.07
0.89
1.71
2.34
2.66
2.67
2.5
2.25
2.02
1.84
1.69
1.56
1.47
1.46
1.55
1.71
1.82
1.78
1.5
0.98
0.35
-0.21
-0.5
-0.47
-0.18
0.2
0.46
0.51
0.34
0.05
-0.23
-0.38
-0.39
-0.28
-0.12
0.05
0.22
0.38
0.52
0.59
0.52
0.28
-0.1
-0.51
-0.76
-0.68
-0.21
0.6
1.48
2.12
2.26
1.8
0.87
-0.23
-1.11
-1.56
-1.46
-0.95
-0.23
0.43
0.84
0.87
0.55
-0.01
-0.63
-1.11
-1.35
-1.3
-1.01
-0.58
-0.12
0.29
0.58
0.72
0.72
0.61
0.41
0.19
0.0
-0.1
-0.1
0.03
0.25
0.5
0.66
0.61
0.27
-0.3
-0.93
-1.39
-1.48
-1.16
-0.58
-0.0
0.31
0.26
-0.08
-0.51
-0.82
-0.9
-0.8
-0.62
-0.46
-0.33
-0.16
0.17
0.66
1.2
1.61
1.71
1.43
0.86
0.17
-0.43
-0.81
-0.91
-0.76
-0.4
0.08
0.64
1.15
1.54
1.69
1.58
1.29
0.92
0.61
0.42
0.37
0.41
0.52
0.65
0.73
0.69
0.46
0.02
-0.53
-1.03
-1.29
-1.19
-0.72
-0.02
0.72
1.26
1.46
1.29
0.86
0.36
0.01
-0.06
0.17
0.6
1.02
1.24
1.12
0.62
-0.13
-0.9
-1.42
-1.5
-1.16
-0.62
-0.18
-0.08
-0.33
-0.72
-0.94
-0.79
-0.27
0.38
0.87
1.01
0.8
0.43
0.12
0.01
0.1
0.26
0.36
0.36
0.27
0.18
0.2
0.36
0.6
0.81
0.86
0.67
0.23
-0.39
-1.03
-1.54
-1.82
-1.84
-1.69
-1.49
-1.34
-1.29
-1.28
-1.2
-0.95
-0.51
0.08
0.73
1.3
1.72
1.94
1.96
1.78
1.43
1.0
0.59
0.3
0.17
0.17
0.22
0.26
0.26
0.28
0.35
0.45
0.51
0.42
0.18
-0.14
-0.4
-0.48
-0.34
-0.03
0.33
0.66
0.9
1.03
0.99
0.77
0.36
-0.15
-0.56
-0.69
-0.42
0.17
0.83
1.27
1.28
0.92
0.42
0.1
0.15
0.55
1.05
1.38
1.33
0.92
0.3
-0.27
-0.63
-0.75
-0.69
-0.61
-0.59
-0.68
-0.79
-0.84
-0.73
-0.44
-0.04
0.37
0.67
0.79
0.72
0.55
0.36
0.23
0.22
0.32
0.5
0.71
0.92
1.08
1.17
1.21
1.15
1.01
0.79
0.55
0.33
0.17
0.03
-0.17
-0.45
-0.86
-1.31
-1.73
-2.02
-2.19
-2.26
-2.25
-2.18
-2.02
-1.8
-1.54
-1.35
-1.27
-1.29
-1.32
-1.21
-0.91
-0.43
0.14
0.7
1.15
1.49
1.71
1.8
1.76
1.55
1.18
0.72
0.33
0.12
0.16
0.4
0.7
0.89
0.88
0.65
0.31
0.03
-0.06
0.09
0.39
0.69
0.86
0.86
0.73
0.57
0.49
0.48
0.49
0.5
0.57
0.8
1.29
2.02
2.83
3.46
3.67
3.41
2.76
1.97
1.29
0.86
0.68
0.62
0.55
0.38
0.13
-0.13
-0.37
-0.63
-0.96
-1.39
-1.89
-2.28
-2.4
-2.15
-1.57
-0.81
-0.15
0.23
0.2
-0.21
-0.84
-1.5
-1.97
-2.13
-1.95
-1.56
-1.16
-0.92
-0.94
-1.14
-1.38
-1.45
-1.28
-0.87
-0.32
0.25
0.77
1.18
1.5
1.74
1.92
2.04
2.1
2.08
1.97
1.77
1.5
1.23
0.99
0.79
0.62
0.43
0.2
-0.07
-0.3
-0.45
-0.47
-0.39
-0.24
-0.11
-0.04
-0.07
-0.21
-0.39
-0.57
-0.67
-0.71
-0.68
-0.62
-0.54
-0.42
-0.26
-0.06
0.09
0.08
-0.18
-0.67
-1.2
-1.54
-1.46
-0.91
-0.05
0.85
1.54
1.86
1.86
1.66
1.41
1.17
0.96
0.71
0.37
-0.01
-0.37
-0.61
-0.65
-0.49
-0.16
0.24
0.63
0.93
1.12
1.16
1.05
0.79
0.33
-0.26
-0.91
-1.46
-1.74
-1.64
-1.24
-0.66
-0.11
0.25
0.36
0.27
0.04
-0.27
-0.59
-0.89
-1.12
-1.23
-1.18
-0.96
-0.59
-0.15
0.29
0.7
1.09
1.46
1.82
2.2
2.58
2.91
3.14
3.17
2.9
2.29
1.38
0.32
-0.68
-1.43
-1.85
-1.96
-1.91
-1.83
-1.83
-1.9
-1.95
-1.87
-1.58
-1.1
-0.53
-0.04
0.23
0.22
0.04
-0.13
-0.13
0.13
0.56
0.93
1.04
0.81
0.35
-0.15
-0.5
-0.6
-0.51
-0.32
-0.12
0.1
0.38
0.74
1.17
1.59
1.88
1.94
1.72
1.27
0.71
0.2
-0.12
-0.19
-0.08
0.05
0.04
-0.17
-0.52
-0.81
-0.92
-0.8
-0.52
-0.2
0.11
0.44
0.85
1.36
1.95
2.47
2.81
2.89
2.71
2.36
1.92
1.51
1.17
0.94
0.81
0.77
0.81
0.91
1.01
1.05
0.95
0.64
0.1
-0.61
-1.3
-1.79
-1.96
-1.87
-1.72
-1.72
-1.99
-2.45
-2.89
-3.06
-2.83
-2.21
-1.35
-0.48
0.18
0.47
0.34
-0.14
-0.83
-1.49
-1.89
-1.91
-1.54
-0.95
-0.38
0.01
0.16
0.16
0.13
0.13
0.14
0.07
-0.12
-0.38
-0.55
-0.51
-0.19
0.35
0.92
1.36
1.55
1.5
1.29
0.99
0.69
0.43
0.23
0.1
0.05
0.07
0.19
0.39
0.63
0.81
0.83
0.63
0.24
-0.15
-0.36
-0.29
-0.0
0.29
0.35
0.08
-0.41
-0.9
-1.16
-1.14
-0.95
-0.78
-0.75
-0.78
-0.71
-0.35
0.33
1.15
1.76
1.89
1.45
0.62
-0.25
-0.77
-0.81
-0.42
0.09
0.41
0.39
0.09
-0.25
-0.38
-0.17
0.32
0.92
1.45
1.78
1.9
1.85
1.64
1.31
0.83
0.25
-0.39
-1.01
-1.49
-1.75
-1.69
-1.29
-0.65
0.08
0.74
1.2
1.47
1.6
1.68
1.71
1.67
1.55
1.37
1.25
1.28
1.48
1.77
1.97
1.95
1.67
1.23
0.76
0.39
0.15
-0.02
-0.22
-0.5
-0.89
-1.36
-1.82
-2.17
-2.3
-2.15
-1.68
-0.93
-0.03
0.84
1.46
1.67
1.44
0.89
0.23
-0.32
-0.65
-0.78
-0.85
-0.99
-1.23
-1.48
-1.57
-1.43
-1.08
-0.69
-0.47
-0.52
-0.8
-1.13
-1.36
-1.39
-1.27
-1.13
-1.05
-1.04
-1.03
-0.94
-0.74
-0.5
-0.31
-0.19
-0.12
-0.01
0.23
0.59
1.01
1.36
1.53
1.47
1.18
0.78
0.41
0.21
0.29
0.61
1.05
1.45
1.66
1.61
1.32
0.88
0.44
0.15
0.12
0.38
0.85
1.36
1.71
1.77
1.5
0.99
0.44
-0.01
-0.24
-0.26
-0.1
0.14
0.38
0.57
0.66
0.68
0.62
0.55
0.53
0.62
0.84
1.18
1.58
1.92
2.04
1.82
1.24
0.4
-0.46
-1.09
-1.33
-1.19
-0.84
-0.5
-0.35
-0.42
-0.65
-0.93
-1.17
-1.35
-1.52
-1.7
-1.83
-1.8
-1.51
-0.96
-0.26
0.37
0.72
0.7
0.4
0.01
-0.24
-0.2
0.1
0.52
0.83
0.87
0.61
0.16
-0.26
-0.41
-0.17
0.43
1.23
1.92
2.26
2.16
1.71
1.18
0.76
0.54
0.46
0.35
0.09
-0.3
-0.68
-0.93
-0.98
-0.92
-0.91
-1.04
-1.29
-1.52
-1.57
-1.43
-1.25
-1.19
-1.37
-1.7
-2.02
-2.18
-2.12
-1.9
-1.67
-1.48
-1.29
-1.0
-0.49
0.2
0.93
1.52
1.82
1.83
1.64
1.41
1.2
0.96
0.62
0.12
-0.48
-1.01
-1.28
-1.12
-0.61
0.1
0.76
1.22
1.47
1.6
1.75
1.94
2.13
2.24
2.25
2.2
2.11
2.02
1.86
1.55
1.06
0.48
-0.05
-0.4
-0.48
-0.37
-0.22
-0.17
-0.34
-0.72
-1.2
-1.64
-1.9
-1.93
-1.71
-1.29
-0.79
-0.32
0.01
0.11
0.0
-0.24
-0.48
-0.57
-0.45
-0.13
0.3
0.73
1.1
1.36
1.47
1.34
0.91
0.2
-0.67
-1.48
-2.03
-2.23
-2.17
-2.02
-1.89
-1.82
-1.71
-1.43
-0.95
-0.35
0.21
0.65
0.94
1.19
1.49
1.82
2.11
2.2
2.03
1.6
1.06
0.57
0.23
0.08
0.09
0.19
0.36
0.61
0.94
1.34
1.77
2.15
2.39
2.41
2.18
1.71
1.07
0.38
-0.25
-0.71
-1.0
-1.2
-1.44
-1.8
-2.28
-2.75
-3.03
-2.94
-2.48
-1.77
-1.06
-0.58
-0.39
-0.44
-0.57
-0.64
-0.57
-0.41
-0.2
0.05
0.37
0.82
1.39
2.0
2.43
2.5
2.14
1.4
0.52
-0.2
-0.55
-0.48
-0.12
0.28
0.5
0.49
0.3
0.11
0.0
0.01
0.06
0.09
0.05
-0.01
-0.05
-0.04
0.01
0.03
-0.02
-0.15
-0.33
-0.49
-0.53
-0.38
-0.04
0.41
0.84
1.14
1.19
1.0
0.61
0.06
-0.54
-1.1
-1.48
-1.57
-1.31
-0.76
-0.05
0.6
1.02
1.15
1.03
0.76
0.49
0.31
0.25
0.28
0.35
0.39
0.36
0.3
0.25
0.27
0.36
0.47
0.53
0.56
0.6
0.77
1.12
1.55
1.9
1.93
1.53
0.78
-0.08
-0.77
-1.1
-1.09
-0.92
-0.83
-0.99
-1.39
-1.86
-2.19
-2.28
-2.1
-1.77
-1.47
-1.31
-1.28
-1.31
-1.26
-1.07
-0.72
-0.31
0.06
0.32
0.5
0.62
0.75
0.84
0.87
0.83
0.77
0.85
1.17
1.7
2.27
2.63
2.58
2.11
1.38
0.66
0.17
-0.01
0.03
0.1
0.03
-0.28
-0.79
-1.38
-1.88
-2.2
-2.26
-2.09
-1.72
-1.2
-0.59
0.09
0.73
1.21
1.41
1.24
0.74
0.06
-0.61
-1.07
-1.2
-0.98
-0.46
0.23
0.95
1.56
1.99
2.18
2.13
1.94
1.71
1.55
1.5
1.57
1.66
1.72
1.69
1.56
1.36
1.09
0.75
0.34
-0.15
-0.64
-1.04
-1.26
-1.27
-1.14
-1.04
-1.15
-1.57
-2.21
-2.86
-3.22
-3.1
-2.51
-1.68
-0.89
-0.38
-0.22
-0.3
-0.48
-0.61
-0.63
-0.5
-0.24
0.14
0.6
1.04
1.34
1.41
1.19
0.76
0.27
-0.11
-0.23
-0.03
0.42
0.99
1.49
1.82
1.94
1.9
1.75
1.5
1.12
0.57
-0.09
-0.7
-1.05
-0.96
-0.44
0.38
1.2
1.78
1.94
1.65
1.04
0.26
-0.44
-0.89
-0.99
-0.78
-0.44
-0.16
-0.13
-0.37
-0.77
-1.14
-1.3
-1.17
-0.81
-0.4
-0.1
-0.01
-0.15
-0.4
-0.64
-0.75
-0.67
-0.46
-0.2
-0.03
0.02
0.0
0.05
0.29
0.73
1.25
1.69
1.91
1.86
1.65
1.38
1.16
0.97
0.76
0.49
0.2
-0.02
-0.09
-0.04
0.01
-0.1
-0.54
-1.27
-2.14
-2.86
-3.15
-2.89
-2.15
-1.2
-0.32
0.25
0.46
0.43
0.37
0.45
0.72
1.11
1.49
1.73
1.79
1.7
1.53
1.31
1.02
0.59
-0.03
-0.8
-1.58
-2.14
-2.28
-1.93
-1.16
-0.21
0.61
1.12
1.26
1.16
1.0
0.91
0.92
0.95
0.91
0.77
0.55
0.31
0.07
-0.18
-0.46
-0.76
-1.01
-1.13
-1.1
-0.99
-0.91
-0.97
-1.15
-1.37
-1.52
-1.49
-1.26
-0.91
-0.49
-0.09
0.31
0.68
1.0
1.2
1.19
0.91
0.41
-0.16
-0.6
-0.76
-0.62
-0.3
-0.02
0.1
0.04
-0.07
-0.05
0.17
0.56
0.95
1.23
1.33
1.37
1.47
1.7
2.03
2.32
2.5
2.52
2.47
2.41
2.39
2.39
2.29
2.02
1.55
0.92
0.26
-0.3
-0.66
-0.77
-0.71
-0.58
-0.51
-0.55
-0.68
-0.8
-0.81
-0.72
-0.63
-0.67
-0.87
-1.15
-1.38
-1.42
-1.28
-1.1
-1.03
-1.14
-1.37
-1.57
-1.62
-1.51
-1.32
-1.16
-1.08
-1.08
-1.09
-1.04
-0.93
-0.74
-0.48
-0.15
0.22
0.55
0.77
0.81
0.67
0.36
-0.04
-0.46
-0.84
-1.11
-1.21
-1.15
-0.94
-0.66
-0.39
-0.19
-0.09
-0.05
-0.0
0.16
0.46
0.87
1.25
1.4
1.16
0.54
-0.28
-0.99
-1.26
-0.99
-0.27
0.63
1.37
1.79
1.84
1.66
1.38
1.11
0.93
0.84
0.85
0.88
0.83
0.6
0.16
-0.38
-0.78
-0.81
-0.32
0.62
1.75
2.73
3.28
3.26
2.7
1.8
0.78
-0.08
-0.7
-0.99
-1.05
-0.98
-0.86
-0.77
-0.68
-0.63
-0.67
-0.82
-1.16
-1.61
-1.98
-2.06
-1.73
-1.05
-0.26
0.33
0.53
0.32
-0.09
-0.48
-0.64
-0.51
-0.13
0.42
1.07
1.74
2.33
2.73
2.77
2.46
1.85
1.19
0.71
0.54
0.7
1.01
1.24
1.22
0.84
0.2
-0.54
-1.22
-1.75
-2.13
-2.43
-2.65
-2.75
-2.63
-2.25
-1.73
-1.29
-1.12
-1.3
-1.69
-2.0
-1.9
-1.26
-0.16
1.06
2.01
2.4
2.16
1.48
0.68
0.05
-0.26
-0.26
-0.09
0.1
0.25
0.38
0.56
0.81
1.09
1.25
1.15
0.76
0.17
-0.45
-0.84
-0.86
-0.49
0.16
0.84
1.28
1.31
0.91
0.24
-0.46
-0.98
-1.19
-1.13
-0.92
-0.69
-0.5
-0.34
-0.18
-0.0
0.18
0.31
0.32
0.24
0.15
0.16
0.34
0.69
1.11
1.44
1.54
1.29
0.71
-0.09
-0.92
-1.54
-1.78
-1.56
-0.96
-0.15
0.64
1.2
1.44
1.38
1.12
0.81
0.52
0.29
0.1
-0.02
-0.05
0.04
0.25
0.48
0.59
0.49
0.17
-0.23
-0.51
-0.47
-0.11
0.47
1.0
1.24
1.1
0.62
-0.02
-0.6
-0.95
-1.03
-0.88
-0.64
-0.47
-0.46
-0.58
-0.77
-0.94
-1.03
-1.08
-1.1
-1.11
-1.05
-0.81
-0.34
0.33
1.0
1.46
1.51
1.12
0.44
-0.31
-0.85
-1.02
-0.76
-0.17
0.57
1.25
1.68
1.78
1.57
1.17
0.75
0.42
0.27
0.26
0.36
0.47
0.53
0.45
0.21
-0.14
-0.5
-0.74
-0.74
-0.53
-0.2
0.1
0.23
0.2
0.04
-0.13
-0.25
-0.29
-0.34
-0.45
-0.66
-0.93
-1.18
-1.32
-1.3
-1.13
-0.83
-0.43
0.0
0.41
0.69
0.77
0.62
0.31
-0.05
-0.3
-0.34
-0.21
-0.02
0.13
0.15
0.06
-0.07
-0.17
-0.2
-0.15
-0.02
0.17
0.4
0.66
0.93
1.16
1.34
1.5
1.65
1.81
1.94
1.98
1.87
1.59
1.18
0.7
0.24
-0.12
-0.37
-0.49
-0.56
-0.68
-0.93
-1.38
-1.96
-2.56
-2.99
-3.04
-2.64
-1.8
-0.72
0.32
1.1
1.47
1.43
1.13
0.73
0.32
-0.05
-0.42
-0.82
-1.26
-1.65
-1.9
-1.92
-1.67
-1.22
-0.68
-0.15
0.28
0.62
0.87
1.07
1.18
1.18
1.06
0.84
0.65
0.59
0.73
1.02
1.29
1.36
1.15
0.68
0.11
-0.4
-0.72
-0.82
-0.72
-0.43
-0.01
0.55
1.19
1.83
2.35
2.65
2.7
2.51
2.19
1.89
1.72
1.73
1.8
1.81
1.61
1.18
0.64
0.19
0.01
0.12
0.42
0.71
0.83
0.73
0.44
0.06
-0.31
-0.63
-0.9
-1.13
-1.37
-1.61
-1.85
-2.04
-2.11
-1.99
-1.73
-1.45
-1.3
-1.43
-1.83
-2.37
-2.81
-2.94
-2.69
-2.08
-1.24
-0.37
0.35
0.76
0.82
0.57
0.19
-0.14
-0.24
-0.11
0.16
0.34
0.27
-0.07
-0.53
-0.89
-1.01
-0.86
-0.6
-0.41
-0.41
-0.58
-0.82
-0.96
-0.9
-0.67
-0.39
-0.21
-0.21
-0.39
-0.62
-0.79
-0.81
-0.67
-0.49
-0.42
-0.59
-1.0
-1.6
-2.22
-2.73
-3.04
-3.13
-3.03
-2.75
-2.31
-1.7
-0.98
-0.32
0.1
0.12
-0.23
-0.77
-1.16
-1.11
-0.5
0.57
1.8
2.87
3.53
3.74
3.59
3.3
3.02
2.87
2.86
2.91
2.92
2.8
2.52
2.09
1.59
1.16
0.91
0.92
1.15
1.52
1.88
2.17
2.35
2.47
2.53
2.52
2.35
1.99
1.45
0.87
0.44
0.29
0.49
0.91
1.37
1.7
1.8
1.67
1.38
1.01
0.63
0.33
0.2
0.25
0.46
0.69
0.79
0.63
0.18
-0.43
-1.01
-1.35
-1.37
-1.05
-0.53
0.01
0.45
0.67
0.64
0.37
-0.07
-0.55
-0.98
-1.26
-1.39
-1.43
-1.47
-1.6
-1.85
-2.2
-2.54
-2.76
-2.77
-2.61
-2.41
-2.34
-2.49
-2.87
-3.29
-3.59
-3.67
-3.54
-3.33
-3.12
-2.93
-2.67
-2.26
-1.7
-1.1
-0.64
-0.36
-0.22
-0.05
0.29
0.83
1.4
1.79
1.85
1.57
1.11
0.7
0.53
0.66
1.05
1.57
2.09
2.51
2.74
2.75
2.56
2.24
1.92
1.76
1.85
2.17
2.64
3.06
3.26
3.14
2.65
1.88
0.94
-0.03
-0.89
-1.49
-1.77
-1.72
-1.45
-1.11
-0.83
-0.74
-0.8
-0.88
-0.79
-0.39
0.34
1.25
2.11
2.65
2.75
2.4
1.76
1.05
0.43
-0.04
-0.36
-0.6
-0.8
-0.96
-1.08
-1.15
-1.19
-1.25
-1.4
-1.64
-1.89
-2.04
-2.0
-1.7
-1.22
-0.68
-0.26
-0.09
-0.17
-0.39
-0.53
-0.38
0.14
0.97
1.87
2.55
2.81
2.6
2.02
1.29
0.6
0.03
-0.42
-0.8
-1.15
-1.44
-1.56
-1.48
-1.2
-0.86
-0.62
-0.6
-0.81
-1.09
-1.25
-1.16
-0.78
-0.2
0.38
0.82
1.03
1.02
0.9
0.74
0.58
0.42
0.23
-0.02
-0.3
-0.55
-0.71
-0.71
-0.54
-0.22
0.2
0.6
0.9
0.99
0.83
0.5
0.18
0.05
0.23
0.69
1.23
1.63
1.72
1.47
0.98
0.46
0.02
-0.28
-0.43
-0.52
-0.54
-0.55
-0.54
-0.53
-0.52
-0.51
-0.46
-0.32
-0.09
0.2
0.47
0.68
0.78
0.76
0.64
0.47
0.26
0.07
-0.09
-0.2
-0.24
-0.19
0.01
0.36
0.84
1.36
1.73
1.79
1.48
0.86
0.15
-0.42
-0.67
-0.58
-0.25
0.11
0.36
0.42
0.29
0.04
-0.26
-0.56
-0.81
-0.99
-1.09
-1.08
-0.98
-0.83
-0.67
-0.55
-0.49
-0.51
-0.58
-0.66
-0.75
-0.82
-0.9
-0.98
-1.05
-1.07
-0.96
-0.68
-0.24
0.32
0.89
1.42
1.9
2.33
2.77
3.21
3.62
3.93
4.09
4.12
4.04
3.95
3.91
3.99
4.24
4.69
5.33
6.08
6.81
7.34
7.52
7.28
6.7
5.98
5.36
5.01
5.01
5.21
5.41
5.33
4.8
3.77
2.36
0.82
-0.6
-1.68
-2.33
-2.58
-2.58
-2.56
-2.74
-3.26
-4.29
-5.88
-8.04
-10.71
-13.7
-16.76
-19.57
-21.89
-23.61
-24.76
-25.5
-25.96
-26.2
-26.11
-25.5
-24.16
-21.95
-18.94
-15.32
-11.34
-7.23
-3.14
0.83
4.61
8.12
11.27
13.99
16.26
18.07
19.41
20.14
20.13
19.31
17.72
15.65
13.48
11.58
10.13
9.07
8.22
7.37
6.44
5.41
4.41
3.49
2.69
1.97
1.22
0.38
-0.52
-1.37
-1.98
-2.21
-2.02
-1.53
-0.92
-0.42
-0.12
-0.03
-0.05
-0.05
0.03
0.18
0.39
0.61
0.82
1.02
1.16
1.15
0.9
0.39
-0.32
-1.09
-1.71
-2.06
-2.1
-1.89
-1.58
-1.26
-0.97
-0.71
-0.46
-0.22
-0.07
-0.07
-0.24
-0.49
-0.68
-0.66
-0.33
0.31
1.13
1.97
2.61
2.9
2.75
2.18
1.34
0.44
-0.28
-0.64
-0.58
-0.19
0.37
0.91
1.26
1.4
1.42
1.42
1.52
1.69
1.86
1.91
1.76
1.37
0.79
0.08
-0.71
-1.47
-2.08
-2.42
-2.4
-2.07
-1.6
-1.2
-1.03
-1.08
-1.23
-1.35
-1.32
-1.17
-0.95
-0.67
-0.28
0.24
0.85
1.36
1.59
1.41
0.87
0.18
-0.42
-0.77
-0.88
-0.86
-0.86
-0.92
-1.03
-1.09
-1.06
-0.92
-0.75
-0.61
-0.51
-0.47
-0.44
-0.42
-0.42
-0.4
-0.34
-0.26
-0.18
-0.18
-0.35
-0.67
-1.01
-1.21
-1.1
-0.68
-0.07
0.52
0.93
1.1
1.07
0.96
0.86
0.77
0.74
0.76
0.89
1.15
1.48
1.84
2.09
2.2
2.15
2.01
1.82
1.61
1.4
1.17
0.95
0.76
0.59
0.41
0.18
-0.18
-0.7
-1.31
-1.9
-2.29
-2.36
-2.08
-1.55
-0.92
-0.38
-0.04
0.12
0.17
0.2
0.25
0.35
0.48
0.61
0.76
0.9
1.04
1.14
1.14
1.02
0.75
0.39
-0.03
-0.41
-0.7
-0.88
-0.98
-1.09
-1.23
-1.39
-1.44
-1.26
-0.78
-0.09
0.58
1.02
1.11
0.9
0.54
0.19
-0.09
-0.31
-0.53
-0.74
-0.89
-0.89
-0.76
-0.58
-0.5
-0.59
-0.86
-1.19
-1.46
-1.62
-1.7
-1.78
-1.92
-2.12
-2.3
-2.37
-2.26
-1.97
-1.56
-1.1
-0.61
-0.09
0.51
1.18
1.86
2.41
2.7
2.67
2.37
1.96
1.64
1.51
1.56
1.67
1.73
1.7
1.67
1.77
2.02
2.36
2.61
2.55
2.09
1.32
0.46
-0.24
-0.62
-0.65
-0.46
-0.22
-0.08
-0.1
-0.21
-0.32
-0.33
-0.23
-0.08
0.02
-0.06
-0.29
-0.59
-0.79
-0.79
-0.58
-0.25
0.08
0.35
0.58
0.82
1.15
1.52
1.84
2.02
2.02
1.89
1.73
1.65
1.73
1.95
2.25
2.55
2.72
2.62
2.05
0.82
-1.24
-4.16
-7.83
-11.94
-16.03
-19.54
-21.89
-22.69
-21.77
-19.31
-15.78
-11.78
-7.84
-4.31
-1.23
1.56
4.34
7.33
10.56
13.86
16.89
19.29
20.77
21.19
20.62
19.21
17.16
14.68
11.97
9.22
6.63
4.31
2.33
0.69
-0.69
-1.8
-2.63
-3.12
-3.27
-3.17
-2.95
-2.78
-2.76
-2.88
-3.04
-3.1
-2.97
-2.67
-2.25
-1.86
-1.59
-1.47
-1.46
-1.41
-1.21
-0.8
-0.26
0.28
0.64
0.71
0.46
0.02
-0.44
-0.71
-0.69
-0.4
-0.01
0.3
0.44
0.42
0.46
0.74
1.4
2.37
3.51
4.66
5.7
6.61
7.41
8.14
8.84
9.59
10.39
11.26
12.14
12.89
13.41
13.73
14.09
14.89
16.44
18.76
21.52
24.09
25.89
26.68
26.74
26.86
27.87
30.25
33.81
37.72
40.9
42.49
42.38
41.03
39.32
37.88
36.87
36.04
35.04
33.76
31.96
28.49
20.7
5.14
-21.04
-57.96
-102.23
-147.46
-186.44
-213.63
-226.5
-225.36
-212.11
-188.98
-158.03
-121.7
-83.44
-48.0
-20.46
-4.86
-2.84
-12.29
-27.56
-41.02
-46.0
-39.93
-25.45
-8.68
4.77
13.52
20.75
31.09
46.57
64.4
79.0
86.54
87.61
87.05
89.75
96.61
103.55
104.63
95.74
77.78
55.78
35.85
22.48
16.78
17.23
21.14
25.71
28.31
27.0
20.44
8.92
-5.29
-18.68
-27.24
-28.16
-21.07
-8.01
6.94
18.95
24.46
22.42
14.94
5.96
-0.81
-3.55
-3.09
-1.69
-1.29
-2.53
-4.23
-4.95
-4.08
-2.13
-0.71
-0.98
-2.9
-5.48
-6.92
-5.9
-2.51
2.19
6.27
8.18
7.63
5.27
2.35
0.14
-1.01
-1.19
-0.81
-0.56
-0.68
-1.37
-2.43
-3.31
-3.66
-3.36
-2.59
-1.78
-1.17
-0.76
-0.53
-0.32
-0.19
-0.11
-0.07
-0.1
-0.17
-0.35
-0.57
-0.77
-0.92
-1.09
-1.37
-1.84
-2.38
-2.75
-2.79
-2.47
-2.05
-1.77
-1.67
-1.69
-1.69
-1.62
-1.58
-1.65
-1.78
-1.91
-1.93
-1.85
-1.74
-1.53
-1.09
-0.39
0.43
1.04
1.18
0.81
0.19
-0.37
-0.72
-0.96
-1.24
-1.64
-2.01
-2.16
-2.03
-1.68
-1.29
-0.97
-0.72
-0.55
-0.5
-0.64
-0.94
-1.28
-1.39
-1.23
-0.89
-0.63
-0.64
-0.95
-1.49
-2.11
-2.7
-3.11
-3.16
-2.73
-1.87
-0.91
-0.23
-0.05
-0.29
-0.69
-0.98
-1.02
-0.8
-0.35
0.3
1.13
1.97
2.64
2.98
3.0
2.85
2.71
2.66
2.67
2.76
2.97
3.36
3.89
4.32
4.41
4.08
3.48
2.88
2.5
2.32
2.22
2.08
1.95
1.94
2.06
2.29
2.45
2.47
2.29
1.89
1.31
0.66
0.12
-0.13
-0.05
0.17
0.26
-0.06
-0.79
-1.73
-2.53
-2.91
-2.79
-2.24
-1.45
-0.61
0.11
0.58
0.73
0.59
0.26
-0.13
-0.48
-0.76
-0.97
-1.1
-1.16
-1.16
-1.15
-1.12
-1.02
-0.8
-0.45
-0.08
0.13
0.07
-0.24
-0.62
-0.86
-0.85
-0.63
-0.32
-0.05
0.1
0.09
-0.06
-0.28
-0.48
-0.56
-0.47
-0.27
-0.11
-0.12
-0.35
-0.72
-1.09
-1.34
-1.45
-1.48
-1.56
-1.78
-2.19
-2.79
-3.43
-3.97
-4.19
-4.02
-3.52
-2.87
-2.25
-1.73
-1.23
-0.64
0.01
0.58
0.84
0.63
-0.01
-0.87
-1.66
-2.09
-2.04
-1.56
-0.84
-0.15
0.3
0.48
0.48
0.46
0.47
0.49
0.41
0.21
0.01
-0.01
0.24
0.68
1.08
1.23
1.1
0.81
0.57
0.47
0.54
0.72
0.99
1.38
1.89
2.39
2.76
2.88
2.77
2.57
2.45
2.48
2.6
2.71
2.69
2.5
2.14
1.72
1.34
1.11
0.99
0.89
0.65
0.21
-0.35
-0.92
-1.34
-1.58
-1.68
-1.79
-1.96
-2.19
-2.44
-2.66
-2.85
-3.02
-3.14
-3.12
-2.88
-2.36
-1.67
-0.95
-0.38
-0.0
0.17
0.23
0.29
0.39
0.55
0.74
0.94
1.16
1.39
1.58
1.64
1.45
0.99
0.36
-0.21
-0.48
-0.38
0.04
0.6
1.15
1.61
1.99
2.33
2.57
2.64
2.45
2.01
1.43
0.88
0.47
0.23
0.04
-0.25
-0.78
-1.59
-2.58
-3.54
-4.22
-4.46
-4.25
-3.73
-3.15
-2.68
-2.38
-2.18
-1.94
-1.57
-1.05
-0.43
0.2
0.79
1.35
1.95
2.65
3.47
4.32
5.03
5.4
5.35
4.94
4.36
3.85
3.63
3.7
3.93
4.17
4.3
4.29
4.19
4.02
3.79
3.42
2.87
2.14
1.33
0.59
0.06
-0.16
-0.06
0.24
0.6
0.82
0.8
0.54
0.09
-0.42
-0.89
-1.3
-1.67
-2.09
-2.61
-3.2
-3.75
-4.14
-4.34
-4.44
-4.61
-4.98
-5.51
-5.97
-6.1
-5.78
-5.08
-4.23
-3.51
-3.05
-2.81
-2.66
-2.47
-2.13
-1.62
-0.94
-0.08
0.9
1.87
2.68
3.22
3.4
3.21
2.55
1.35
-0.43
-2.64
-4.95
-6.94
-8.23
-8.72
-8.59
-8.23
-8.03
-8.2
-8.6
-8.83
-8.47
-7.26
-5.21
-2.58
0.21
2.82
5.02
6.73
8.02
8.98
9.7
10.24
10.63
10.88
10.91
10.67
10.09
9.23
8.19
7.13
6.11
5.22
4.47
3.9
3.59
3.5
3.54
3.5
3.22
2.66
1.96
1.33
0.94
0.78
0.7
0.48
-0.09
-1.11
-2.51
-4.15
-5.86
-7.46
-8.86
-10.03
-11.0
-11.77
-12.34
-12.66
-12.61
-12.11
-11.15
-9.79
-8.2
-6.52
-4.87
-3.3
-1.81
-0.43
0.85
1.96
2.91
3.74
4.59
5.55
6.58
7.48
7.97
7.86
7.17
6.15
5.17
4.49
4.17
4.07
4.03
3.94
3.85
3.89
4.14
4.59
5.12
5.61
5.92
6.05
5.96
5.68
5.2
4.51
3.6
2.53
1.42
0.42
-0.3
-0.66
-0.64
-0.37
-0.04
0.12
0.0
-0.42
-1.07
-1.75
-2.32
-2.67
-2.77
-2.7
-2.6
-2.6
-2.76
-3.06
-3.38
-3.6
-3.63
-3.48
-3.23
-2.97
-2.78
-2.64
-2.49
-2.25
-1.91
-1.53
-1.21
-1.02
-0.97
-0.98
-0.93
-0.75
-0.47
-0.14
0.11
0.25
0.22
0.04
-0.26
-0.62
-0.92
-1.06
-0.97
-0.69
-0.36
-0.21
-0.39
-0.96
-1.78
-2.61
-3.17
-3.29
-2.9
-2.11
-1.14
-0.21
0.48
0.85
0.94
0.88
0.84
0.91
1.16
1.48
1.8
1.99
2.02
1.91
1.7
1.45
1.19
0.93
0.67
0.43
0.22
0.1
0.1
0.24
0.51
0.83
1.1
1.18
1.01
0.57
-0.02
-0.57
-0.89
-0.87
-0.54
-0.05
0.41
0.71
0.81
0.79
0.8
0.91
1.14
1.44
1.73
1.96
2.16
2.4
2.71
3.04
3.24
3.12
2.58
1.67
0.61
-0.32
-0.88
-1.0
-0.78
-0.37
0.03
0.28
0.29
0.03
-0.47
-1.12
-1.76
-2.26
-2.5
-2.45
-2.18
-1.77
-1.36
-1.07
-0.98
-1.11
-1.39
-1.72
-1.93
-1.88
-1.53
-0.91
-0.17
0.54
1.06
1.28
1.2
0.84
0.36
-0.07
-0.27
-0.12
0.4
1.16
1.92
2.46
2.62
2.42
1.98
1.54
1.27
1.21
1.32
1.44
1.48
1.38
1.19
0.94
0.62
0.16
-0.48
-1.23
-1.94
-2.39
-2.44
-2.15
-1.66
-1.26
-1.11
-1.21
-1.45
-1.61
-1.56
-1.27
-0.85
-0.39
-0.01
0.25
0.39
0.37
0.19
-0.15
-0.59
-1.02
-1.34
-1.5
-1.5
-1.42
-1.26
-1.03
-0.7
-0.33
-0.07
-0.06
-0.4
-0.98
-1.55
-1.86
-1.77
-1.36
-0.89
-0.59
-0.59
-0.8
-1.02
-1.04
-0.8
-0.36
0.07
0.36
0.43
0.33
0.17
0.05
-0.01
-0.04
-0.07
-0.09
-0.04
0.12
0.39
0.7
0.92
0.95
0.79
0.55
0.41
0.49
0.81
1.24
1.64
1.85
1.83
1.67
1.52
1.53
1.73
2.08
2.42
2.62
2.62
2.42
2.12
1.84
1.63
1.52
1.45
1.35
1.15
0.8
0.31
-0.27
-0.83
-1.25
-1.44
-1.36
-1.07
-0.7
-0.39
-0.26
-0.3
-0.45
-0.59
-0.67
-0.7
-0.73
-0.78
-0.81
-0.72
-0.44
0.02
0.48
0.74
0.65
0.23
-0.34
-0.81
-1.04
-1.0
-0.86
-0.76
-0.83
-1.07
-1.4
-1.71
-1.93
-2.07
-2.12
-2.09
-1.96
-1.67
-1.21
-0.61
-0.01
0.45
0.62
0.48
0.14
-0.18
-0.24
0.1
0.77
1.5
1.99
2.01
1.55
0.82
0.09
-0.39
-0.57
-0.54
-0.42
-0.3
-0.19
-0.05
0.1
0.21
0.23
0.16
0.1
0.21
0.59
1.19
1.83
2.27
2.36
2.09
1.58
1.04
0.65
0.49
0.59
0.9
1.29
1.62
1.77
1.65
1.28
0.73
0.12
-0.38
-0.66
-0.63
-0.34
0.11
0.57
0.86
0.86
0.56
0.01
-0.67
-1.37
-1.97
-2.43
-2.69
-2.72
-2.52
-2.14
-1.7
-1.33
-1.1
-1.02
-1.03
-1.02
-0.9
-0.7
-0.47
-0.28
-0.16
-0.12
-0.07
0.0
0.09
0.09
-0.03
-0.29
-0.63
-0.93
-1.07
-0.95
-0.63
-0.19
0.25
0.54
0.61
0.45
0.15
-0.17
-0.33
-0.23
0.15
0.7
1.22
1.51
1.44
1.03
0.42
-0.19
-0.63
-0.82
-0.81
-0.68
-0.5
-0.32
-0.11
0.12
0.32
0.38
0.21
-0.19
-0.7
-1.11
-1.21
-0.91
-0.3
0.42
0.95
1.13
0.93
0.46
-0.05
-0.4
-0.49
-0.28
0.16
0.73
1.33
1.88
2.3
2.55
2.59
2.41
2.02
1.45
0.79
0.17
-0.29
-0.5
-0.48
-0.31
-0.15
-0.1
-0.23
-0.52
-0.93
-1.39
-1.86
-2.27
-2.52
-2.51
-2.23
-1.72
-1.11
-0.53
-0.09
0.17
0.27
0.28
0.3
0.43
0.75
1.22
1.7
2.0
1.93
1.47
0.72
-0.07
-0.63
-0.81
-0.64
-0.28
0.06
0.2
0.12
-0.13
-0.43
-0.69
-0.88
-1.03
-1.18
-1.29
-1.32
-1.12
-0.67
0.02
0.78
1.38
1.67
1.62
1.34
1.01
0.82
0.83
1.0
1.21
1.36
1.38
1.25
0.98
0.6
0.13
-0.36
-0.78
-0.99
-0.92
-0.54
0.05
0.67
1.14
1.29
1.08
0.57
-0.11
-0.81
-1.33
-1.58
-1.55
-1.28
-0.91
-0.57
-0.35
-0.26
-0.29
-0.39
-0.53
-0.75
-1.01
-1.29
-1.46
-1.44
-1.21
-0.83
-0.45
-0.19
-0.11
-0.13
-0.15
-0.06
0.17
0.45
0.69
0.83
0.83
0.75
0.62
0.5
0.38
0.26
0.11
-0.04
-0.16
-0.17
-0.05
0.18
0.42
0.49
0.3
-0.18
-0.78
-1.27
-1.41
-1.11
-0.46
0.36
1.12
1.66
1.94
2.04
2.04
2.0
1.92
1.77
1.57
1.34
1.19
1.13
1.19
1.28
1.31
1.18
0.92
0.64
0.44
0.42
0.48
0.45
0.15
-0.48
-1.28
-2.0
-2.4
-2.44
-2.23
-1.99
-1.86
-1.82
-1.72
-1.46
-1.01
-0.51
-0.12
0.05
0.07
0.02
0.04
0.11
0.16
0.05
-0.26
-0.71
-1.16
-1.44
-1.43
-1.12
-0.63
-0.08
0.36
0.63
0.71
0.63
0.47
0.27
0.1
-0.05
-0.15
-0.23
-0.32
-0.49
-0.8
-1.23
-1.68
-1.95
-1.88
-1.41
-0.67
0.09
0.61
0.72
0.45
0.04
-0.23
-0.16
0.28
0.93
1.54
1.87
1.82
1.41
0.8
0.2
-0.21
-0.34
-0.17
0.18
0.54
0.77
0.77
0.55
0.23
-0.01
-0.03
0.27
0.82
1.48
2.05
2.36
2.37
2.08
1.63
1.14
0.71
0.38
0.11
-0.16
-0.48
-0.86
-1.27
-1.63
-1.86
-1.94
-1.86
-1.68
-1.41
-1.06
-0.6
-0.03
0.59
1.1
1.36
1.26
0.85
0.28
-0.25
-0.57
-0.68
-0.66
-0.66
-0.79
-1.04
-1.38
-1.69
-1.89
-1.92
-1.76
-1.43
-0.98
-0.5
-0.08
0.24
0.46
0.6
0.69
0.77
0.83
0.88
0.92
0.97
1.05
1.16
1.25
1.27
1.14
0.84
0.44
0.07
-0.12
-0.08
0.17
0.51
0.79
0.91
0.93
0.95
1.12
1.44
1.8
2.02
1.94
1.55
0.97
0.34
-0.19
-0.6
-0.87
-1.01
-1.02
-0.92
-0.78
-0.69
-0.71
-0.87
-1.06
-1.17
-1.11
-0.92
-0.7
-0.58
-0.58
-0.67
-0.74
-0.68
-0.43
-0.01
0.52
1.03
1.39
1.48
1.24
0.71
0.03
-0.6
-1.06
-1.34
-1.5
-1.64
-1.8
-1.94
-1.98
-1.85
-1.58
-1.25
-0.97
-0.77
-0.62
-0.44
-0.2
0.07
0.26
0.27
0.04
-0.37
-0.82
-1.13
-1.17
-0.9
-0.4
0.18
0.73
1.15
1.39
1.49
1.46
1.37
1.27
1.18
1.13
1.13
1.17
1.27
1.48
1.79
2.22
2.66
2.96
2.94
2.49
1.66
0.62
-0.33
-0.93
-1.05
-0.7
-0.07
0.6
1.1
1.31
1.22
0.93
0.61
0.4
0.41
0.61
0.92
1.19
1.28
1.14
0.77
0.27
-0.27
-0.73
-0.99
-0.98
-0.7
-0.23
0.26
0.61
0.68
0.47
0.06
-0.38
-0.74
-0.96
-1.11
-1.25
-1.46
-1.76
-2.12
-2.45
-2.65
-2.67
-2.51
-2.22
-1.94
-1.76
-1.74
-1.83
-1.92
-1.85
-1.59
-1.16
-0.68
-0.25
0.13
0.5
0.94
1.43
1.88
2.16
2.19
2.01
1.77
1.63
1.66
1.79
1.8
1.52
0.91
0.12
-0.57
-0.89
-0.66
0.05
1.03
1.94
2.45
2.42
1.83
0.88
-0.17
-1.05
-1.62
-1.85
-1.83
-1.71
-1.56
-1.43
-1.27
-1.07
-0.86
-0.67
-0.52
-0.41
-0.29
-0.13
0.09
0.34
0.59
0.81
0.97
1.07
1.11
1.07
0.97
0.83
0.68
0.53
0.41
0.33
0.26
0.2
0.12
-0.03
-0.25
-0.55
-0.88
-1.17
-1.39
-1.51
-1.56
-1.54
-1.47
-1.32
-1.07
-0.78
-0.48
-0.27
-0.16
-0.11
-0.04
0.15
0.51
1.02
1.64
2.25
2.76
3.08
3.21
3.2
3.09
2.98
2.93
3.01
3.27
3.69
4.18
4.58
4.72
4.47
3.81
2.83
1.74
0.75
0.08
-0.24
-0.21
0.03
0.29
0.38
0.11
-0.59
-1.62
-2.75
-3.68
-4.14
-4.1
-3.73
-3.35
-3.26
-3.6
-4.27
-5.05
-5.72
-6.16
-6.42
-6.61
-6.84
-7.13
-7.5
-7.89
-8.31
-8.74
-9.12
-9.37
-9.46
-9.37
-9.18
-8.96
-8.74
-8.46
-8.02
-7.36
-6.49
-5.49
-4.44
-3.39
-2.27
-1.01
0.44
2.02
3.58
4.95
5.95
6.52
6.7
6.63
6.5
6.46
6.62
6.97
7.44
7.94
8.37
8.68
8.83
8.78
8.47
7.85
6.91
5.72
4.51
3.54
3.03
3.02
3.36
3.75
3.86
3.51
2.76
1.85
1.04
0.53
0.38
0.48
0.71
0.93
1.03
0.97
0.74
0.38
-0.03
-0.36
-0.48
-0.3
0.21
1.0
1.94
2.86
3.57
3.91
3.82
3.36
2.68
1.98
1.39
0.98
0.75
0.68
0.72
0.81
0.84
0.69
0.25
-0.46
-1.29
-2.02
-2.47
-2.63
-2.64
-2.71
-2.99
-3.44
-3.9
-4.17
-4.15
-3.87
-3.48
-3.09
-2.73
-2.36
-1.91
-1.39
-0.85
-0.41
-0.11
0.06
0.21
0.39
0.61
0.85
1.05
1.22
1.38
1.51
1.58
1.55
1.41
1.19
1.0
0.91
0.95
1.09
1.23
1.32
1.33
1.29
1.21
1.08
0.91
0.71
0.53
0.41
0.37
0.39
0.41
0.37
0.25
0.05
-0.17
-0.39
-0.63
-0.95
-1.41
-2.04
-2.76
-3.42
-3.82
-3.8
-3.34
-2.55
-1.65
-0.87
-0.38
-0.17
-0.18
-0.3
-0.43
-0.54
-0.58
-0.52
-0.32
0.06
0.59
1.13
1.5
1.57
1.28
0.73
0.11
-0.35
-0.56
-0.53
-0.41
-0.38
-0.55
-0.91
-1.34
-1.67
-1.79
-1.67
-1.38
-1.0
-0.63
-0.25
0.15
0.61
1.09
1.54
1.88
2.05
2.06
1.96
1.79
1.6
1.46
1.38
1.37
1.39
1.38
1.24
0.95
0.57
0.2
-0.05
-0.12
-0.06
0.02
-0.02
-0.26
-0.69
-1.22
-1.71
-2.03
-2.09
-1.87
-1.46
-1.0
-0.68
-0.55
-0.65
-0.83
-0.98
-1.03
-0.98
-0.88
-0.77
-0.66
-0.49
-0.25
0.02
0.22
0.27
0.16
0.0
-0.07
0.02
0.23
0.44
0.51
0.41
0.18
-0.05
-0.16
-0.11
0.02
0.13
0.16
0.08
-0.08
-0.25
-0.41
-0.53
-0.6
-0.58
-0.4
-0.07
0.41
0.89
1.26
1.39
1.27
0.97
0.65
0.48
0.51
0.77
1.17
1.64
2.06
2.35
2.45
2.35
2.11
1.85
1.73
1.79
1.99
2.16
2.15
1.83
1.26
0.59
-0.01
-0.47
-0.81
-1.1
-1.4
-1.66
-1.79
-1.73
-1.5
-1.3
-1.32
-1.68
-2.32
-2.98
-3.38
-3.32
-2.84
-2.17
-1.64
-1.49
-1.71
-2.09
-2.33
-2.19
-1.62
-0.83
-0.05
0.52
0.86
1.08
1.3
1.55
1.71
1.61
1.17
0.52
-0.13
-0.56
-0.66
-0.53
-0.36
-0.3
-0.34
-0.38
-0.31
-0.1
0.15
0.31
0.31
0.24
0.22
0.39
0.73
1.12
1.35
1.29
0.97
0.49
0.04
-0.24
-0.31
-0.19
0.05
0.36
0.74
1.2
1.73
2.24
2.59
2.62
2.25
1.54
0.69
-0.03
-0.37
-0.23
0.34
1.14
1.94
2.53
2.75
2.57
2.01
1.22
0.39
-0.27
-0.6
-0.57
-0.26
0.16
0.54
0.74
0.71
0.46
-0.01
-0.63
-1.31
-1.94
-2.35
-2.43
-2.13
-1.52
-0.82
-0.27
-0.03
-0.11
-0.39
-0.64
-0.68
-0.46
-0.03
0.45
0.85
1.07
1.05
0.79
0.32
-0.31
-1.0
-1.64
-2.07
-2.18
-1.94
-1.45
-0.85
-0.35
-0.09
-0.15
-0.5
-1.01
-1.51
-1.88
-2.07
-2.09
-2.0
-1.83
-1.57
-1.24
-0.85
-0.54
-0.46
-0.75
-1.43
-2.35
-3.27
-3.88
-4.01
-3.61
-2.86
-2.04
-1.36
-0.9
-0.58
-0.24
0.24
0.8
1.31
1.61
1.64
1.51
1.39
1.47
1.79
2.28
2.78
3.16
3.34
3.33
3.17
2.89
2.49
1.93
1.26
0.54
-0.06
-0.4
-0.43
-0.21
0.09
0.3
0.3
0.1
-0.2
-0.48
-0.68
-0.81
-0.89
-0.94
-0.89
-0.67
-0.25
0.33
0.9
1.31
1.44
1.3
0.94
0.5
0.11
-0.14
-0.18
0.01
0.37
0.8
1.17
1.36
1.3
0.97
0.44
-0.17
-0.72
-1.09
-1.21
-1.13
-0.96
-0.87
-0.99
-1.32
-1.77
-2.14
-2.25
-2.01
-1.49
-0.84
-0.24
0.22
0.48
0.53
0.37
0.01
-0.5
-1.06
-1.51
-1.7
-1.61
-1.23
-0.71
-0.1
0.54
1.19
1.85
2.44
2.85
2.96
2.69
2.14
1.45
0.86
0.55
0.58
0.9
1.39
1.91
2.35
2.61
2.65
2.44
1.99
1.37
0.7
0.13
-0.21
-0.26
-0.04
0.3
0.56
0.55
0.2
-0.44
-1.24
-1.99
-2.56
-2.88
-2.95
-2.79
-2.46
-1.99
-1.44
-0.82
-0.22
0.27
0.56
0.6
0.43
0.13
-0.18
-0.39
-0.45
-0.33
-0.11
0.14
0.33
0.43
0.43
0.44
0.53
0.76
1.15
1.6
2.01
2.26
2.28
2.01
1.49
0.76
-0.05
-0.79
-1.31
-1.48
-1.3
-0.87
-0.33
0.18
0.57
0.84
0.98
1.0
0.89
0.69
0.47
0.36
0.45
0.76
1.17
1.49
1.55
1.27
0.69
-0.03
-0.74
-1.27
-1.59
-1.73
-1.8
-1.94
-2.21
-2.62
-3.03
-3.29
-3.29
-3.02
-2.55
-1.99
-1.43
-0.88
-0.34
0.19
0.65
0.95
1.04
0.87
0.54
0.18
-0.06
-0.07
0.18
0.6
1.01
1.26
1.2
0.82
0.22
-0.36
-0.72
-0.73
-0.43
0.05
0.49
0.74
0.75
0.55
0.24
-0.11
-0.48
-0.85
-1.18
-1.37
-1.28
-0.8
0.03
1.04
1.94
2.5
2.6
2.34
1.92
1.58
1.46
1.58
1.84
2.11
2.3
2.37
2.31
2.11
1.76
1.27
0.73
0.24
-0.1
-0.31
-0.44
-0.54
-0.63
-0.67
-0.66
-0.64
-0.7
-0.89
-1.19
-1.46
-1.55
-1.38
-1.01
-0.61
-0.4
-0.54
-1.01
-1.71
-2.45
-3.06
-3.41
-3.49
-3.31
-2.96
-2.52
-2.03
-1.48
-0.8
0.03
0.93
1.79
2.44
2.77
2.76
2.5
2.1
1.68
1.33
1.09
0.98
0.98
1.05
1.11
1.1
0.99
0.8
0.59
0.4
0.2
-0.09
-0.55
-1.19
-1.89
-2.47
-2.76
-2.63
-2.18
-1.52
-0.85
-0.28
0.14
0.39
0.49
0.44
0.31
0.2
0.24
0.52
1.0
1.54
1.92
2.02
1.82
1.42
0.94
0.49
0.09
-0.27
-0.62
-0.94
-1.24
-1.54
-1.86
-2.18
-2.41
-2.43
-2.16
-1.61
-0.95
-0.37
-0.05
0.01
-0.08
-0.15
-0.11
0.03
0.15
0.17
0.06
-0.09
-0.16
-0.08
0.2
0.59
1.01
1.37
1.61
1.7
1.63
1.38
0.98
0.44
-0.13
-0.59
-0.88
-0.97
-0.91
-0.75
-0.56
-0.34
-0.13
0.08
0.25
0.35
0.37
0.34
0.34
0.44
0.7
1.05
1.42
1.68
1.78
1.69
1.44
1.07
0.64
0.25
-0.05
-0.19
-0.17
-0.06
0.04
0.01
-0.18
-0.55
-0.97
-1.33
-1.48
-1.42
-1.19
-0.9
-0.67
-0.56
-0.52
-0.46
-0.32
-0.06
0.25
0.49
0.52
0.3
-0.13
-0.61
-0.97
-1.13
-1.08
-0.93
-0.8
-0.76
-0.78
-0.78
-0.66
-0.38
0.01
0.4
0.66
0.8
0.84
0.89
1.0
1.15
1.29
1.33
1.27
1.13
0.95
0.76
0.58
0.39
0.18
-0.0
-0.08
0.04
0.38
0.9
1.48
1.96
2.17
2.02
1.47
0.68
-0.15
-0.79
-1.15
-1.29
-1.38
-1.55
-1.81
-2.06
-2.11
-1.92
-1.54
-1.11
-0.71
-0.33
0.13
0.73
1.4
1.96
2.23
2.13
1.75
1.29
0.97
0.83
0.83
0.85
0.74
0.45
-0.01
-0.57
-1.1
-1.49
-1.62
-1.43
-0.94
-0.26
0.45
1.01
1.28
1.21
0.87
0.42
0.02
-0.19
-0.19
-0.08
-0.04
-0.18
-0.56
-1.1
-1.68
-2.17
-2.46
-2.57
-2.46
-2.19
-1.79
-1.31
-0.86
-0.52
-0.36
-0.38
-0.54
-0.71
-0.8
-0.77
-0.62
-0.42
-0.22
-0.06
0.06
0.13
0.2
0.3
0.45
0.7
1.12
1.73
2.49
3.28
3.89
4.15
3.95
3.37
2.57
1.75
1.06
0.55
0.19
-0.09
-0.32
-0.51
-0.62
-0.7
-0.79
-0.94
-1.16
-1.41
-1.63
-1.76
-1.79
-1.77
-1.77
-1.86
-2.06
-2.38
-2.75
-3.07
-3.19
-2.96
-2.36
-1.48
-0.58
0.12
0.44
0.46
0.34
0.28
0.4
0.65
0.96
1.25
1.54
1.85
2.16
2.37
2.33
1.97
1.32
0.57
-0.11
-0.61
-0.92
-1.13
-1.27
-1.35
-1.28
-1.02
-0.55
0.04
0.67
1.27
1.8
2.26
2.59
2.78
2.71
2.36
1.77
1.1
0.53
0.2
0.14
0.25
0.33
0.22
-0.09
-0.52
-0.89
-1.06
-1.02
-0.82
-0.58
-0.33
-0.05
0.34
0.81
1.23
1.39
1.11
0.43
-0.39
-0.98
-1.06
-0.58
0.2
0.85
1.03
0.64
-0.13
-0.91
-1.36
-1.37
-1.07
-0.73
-0.54
-0.56
-0.63
-0.59
-0.29
0.22
0.78
1.19
1.3
1.1
0.68
0.21
-0.2
-0.46
-0.56
-0.51
-0.32
0.01
0.43
0.92
1.38
1.75
1.99
2.05
1.94
1.62
1.11
0.41
-0.4
-1.22
-1.89
-2.27
-2.3
-2.02
-1.54
-1.06
-0.73
-0.63
-0.75
-0.99
-1.19
-1.28
-1.25
-1.19
-1.19
-1.27
-1.33
-1.22
-0.84
-0.24
0.37
0.72
0.59
0.02
-0.79
-1.47
-1.78
-1.66
-1.23
-0.75
-0.44
-0.39
-0.55
-0.78
-0.94
-0.93
-0.77
-0.49
-0.13
0.26
0.62
0.94
1.2
1.37
1.45
1.43
1.34
1.22
1.11
1.03
0.97
0.85
0.63
0.28
-0.15
-0.53
-0.75
-0.71
-0.45
-0.09
0.25
0.42
0.4
0.21
-0.11
-0.51
-0.96
-1.42
-1.82
-2.06
-2.06
-1.76
-1.19
-0.45
0.29
0.9
1.29
1.44
1.39
1.22
1.01
0.87
0.87
1.02
1.31
1.65
1.95
2.13
2.18
2.16
2.11
2.01
1.85
1.59
1.24
0.9
0.7
0.66
0.72
0.69
0.37
-0.3
-1.18
-2.03
-2.58
-2.72
-2.56
-2.33
-2.23
-2.37
-2.66
-2.93
-3.05
-3.01
-2.89
-2.76
-2.65
-2.48
-2.16
-1.64
-1.03
-0.52
-0.28
-0.4
-0.84
-1.4
-1.89
-2.13
-2.05
-1.65
-1.0
-0.23
0.54
1.16
1.58
1.77
1.75
1.63
1.48
1.42
1.49
1.71
2.04
2.44
2.85
3.18
3.4
3.44
3.25
2.81
2.18
1.4
0.59
-0.13
-0.66
-0.9
-0.85
-0.57
-0.24
-0.02
-0.05
-0.34
-0.74
-1.06
-1.1
-0.84
-0.35
0.16
0.55
0.75
0.81
0.79
0.7
0.51
0.18
-0.26
-0.64
-0.77
-0.52
0.07
0.79
1.37
1.64
1.54
1.22
0.84
0.49
0.21
-0.08
-0.39
-0.7
-0.94
-1.04
-1.02
-0.99
-1.08
-1.34
-1.7
-1.99
-2.05
-1.82
-1.37
-0.87
-0.49
-0.33
-0.32
-0.34
-0.18
0.24
0.92
1.72
2.45
2.95
3.13
3.04
2.78
2.5
2.28
2.15
2.02
1.79
1.44
1.0
0.64
0.46
0.47
0.58
0.62
0.45
0.07
-0.4
-0.8
-1.02
-1.05
-0.97
-0.87
-0.81
-0.77
-0.73
-0.65
-0.62
-0.7
-0.94
-1.32
-1.73
-2.04
-2.14
-2.04
-1.79
-1.51
-1.3
-1.23
-1.27
-1.34
-1.36
-1.27
-1.11
-0.88
-0.65
-0.41
-0.13
0.2
0.56
0.89
1.07
1.07
0.88
0.59
0.31
0.16
0.17
0.31
0.48
0.57
0.55
0.45
0.34
0.31
0.42
0.68
1.03
1.4
1.67
1.8
1.76
1.6
1.4
1.24
1.15
1.12
1.05
0.89
0.64
0.38
0.23
0.27
0.44
0.61
0.65
0.46
0.13
-0.2
-0.41
-0.43
-0.37
-0.33
-0.44
-0.7
-1.04
-1.34
-1.52
-1.62
-1.71
-1.86
-2.08
-2.28
-2.39
-2.35
-2.18
-1.95
-1.7
-1.4
-1.03
-0.56
-0.01
0.5
0.86
1.0
1.0
1.0
1.14
1.5
1.99
2.44
2.6
2.38
1.8
1.03
0.32
-0.15
-0.29
-0.14
0.16
0.45
0.63
0.64
0.51
0.23
-0.14
-0.59
-1.05
-1.42
-1.54
-1.32
-0.72
0.11
0.92
1.47
1.55
1.2
0.61
0.04
-0.29
-0.31
-0.1
0.21
0.5
0.74
0.92
1.04
1.08
1.0
0.8
0.58
0.45
0.52
0.78
1.16
1.47
1.56
1.38
0.97
0.49
0.07
-0.17
-0.19
-0.04
0.17
0.31
0.24
-0.11
-0.71
-1.45
-2.15
-2.68
-2.91
-2.81
-2.43
-1.85
-1.16
-0.49
0.03
0.29
0.27
0.04
-0.26
-0.48
-0.54
-0.43
-0.24
-0.06
0.04
0.05
0.01
-0.03
-0.04
0.01
0.11
0.24
0.36
0.44
0.41
0.26
-0.04
-0.4
-0.71
-0.86
-0.74
-0.3
0.38
1.11
1.66
1.81
1.48
0.78
-0.08
-0.84
-1.28
-1.37
-1.2
-0.92
-0.66
-0.46
-0.28
-0.06
0.22
0.52
0.73
0.79
0.72
0.61
0.6
0.76
1.08
1.46
1.75
1.84
1.73
1.44
1.06
0.66
0.26
-0.13
-0.5
-0.81
-1.0
-1.02
-0.83
-0.49
-0.13
0.02
-0.19
-0.83
-1.76
-2.69
-3.32
-3.43
-3.04
-2.32
-1.5
-0.74
-0.04
0.58
1.12
1.48
1.56
1.33
0.92
0.51
0.24
0.13
0.08
-0.02
-0.26
-0.6
-0.96
-1.21
-1.28
-1.14
-0.76
-0.19
0.48
1.09
1.47
1.48
1.09
0.39
-0.44
-1.22
-1.79
-2.01
-1.83
-1.32
-0.64
-0.03
0.34
0.39
0.21
-0.08
-0.34
-0.54
-0.72
-0.91
-1.09
-1.19
-1.09
-0.75
-0.17
0.61
1.5
2.35
2.99
3.23
2.96
2.24
1.33
0.54
0.14
0.16
0.44
0.72
0.75
0.46
-0.1
-0.72
-1.23
-1.5
-1.46
-1.1
-0.46
0.34
1.1
1.63
1.75
1.43
0.79
0.04
-0.52
-0.76
-0.62
-0.24
0.18
0.49
0.58
0.51
0.4
0.33
0.32
0.32
0.28
0.16
0.03
0.01
0.19
0.58
1.09
1.53
1.72
1.56
1.08
0.43
-0.19
-0.65
-0.89
-0.96
-0.99
-1.06
-1.19
-1.35
-1.44
-1.4
-1.25
-1.03
-0.83
-0.71
-0.66
-0.63
-0.51
-0.24
0.18
0.68
1.11
1.32
1.21
0.77
0.12
-0.58
-1.14
-1.45
-1.49
-1.29
-0.95
-0.56
-0.19
0.09
0.25
0.29
0.22
0.15
0.19
0.44
0.92
1.54
2.16
2.62
2.79
2.65
2.25
1.67
1.01
0.39
-0.08
-0.33
-0.33
-0.13
0.14
0.32
0.25
-0.1
-0.67
-1.29
-1.82
-2.13
-2.19
-2.05
-1.78
-1.45
-1.11
-0.77
-0.46
-0.28
-0.31
-0.59
-1.06
-1.57
-1.86
-1.74
-1.15
-0.25
0.7
1.37
1.57
1.28
0.62
-0.17
-0.85
-1.27
-1.38
-1.27
-1.06
-0.87
-0.74
-0.61
-0.35
0.07
0.61
1.1
1.38
1.39
1.18
0.94
0.88
1.09
1.56
2.12
2.63
2.93
2.99
2.84
2.57
2.28
2.02
1.79
1.57
1.34
1.1
0.86
0.64
0.41
0.15
-0.17
-0.56
-0.98
-1.37
-1.71
-2.02
-2.34
-2.64
-2.83
-2.77
-2.34
-1.54
-0.58
0.31
0.85
0.95
0.68
0.23
-0.2
-0.47
-0.54
-0.43
-0.22
0.02
0.18
0.19
0.01
-0.33
-0.72
-1.06
-1.22
-1.18
-1.01
-0.79
-0.63
-0.53
-0.45
-0.34
-0.14
0.13
0.43
0.68
0.81
0.78
0.56
0.17
-0.32
-0.82
-1.18
-1.33
-1.21
-0.87
-0.42
-0.04
0.16
0.1
-0.19
-0.6
-1.04
-1.39
-1.62
-1.72
-1.71
-1.64
-1.59
-1.64
-1.83
-2.13
-2.45
-2.64
-2.58
-2.21
-1.55
-0.7
0.19
0.95
1.46
1.65
1.58
1.37
1.18
1.12
1.19
1.34
1.49
1.62
1.76
1.95
2.16
2.33
2.31
2.05
1.62
1.2
0.99
1.09
1.47
1.9
2.11
1.93
1.36
0.65
0.12
0.03
0.42
1.07
1.6
1.74
1.44
0.87
0.36
0.11
0.14
0.28
0.32
0.16
-0.1
-0.24
-0.1
0.32
0.82
1.1
0.98
0.45
-0.27
-0.87
-1.11
-0.93
-0.48
-0.02
0.26
0.3
0.2
0.12
0.15
0.28
0.4
0.4
0.23
-0.09
-0.47
-0.84
-1.15
-1.41
-1.62
-1.76
-1.81
-1.75
-1.57
-1.31
-1.04
-0.78
-0.58
-0.4
-0.24
-0.05
0.17
0.39
0.57
0.63
0.58
0.45
0.31
0.25
0.27
0.31
0.26
0.02
-0.45
-1.06
-1.66
-2.09
-2.27
-2.27
-2.17
-2.08
-2.02
-1.91
-1.63
-1.1
-0.38
0.35
0.89
1.08
0.92
0.58
0.29
0.2
0.3
0.47
0.55
0.44
0.19
-0.09
-0.32
-0.46
-0.5
-0.43
-0.2
0.2
0.77
1.35
1.74
1.78
1.43
0.86
0.29
-0.06
-0.16
-0.1
-0.02
-0.0
-0.03
0.03
0.25
0.59
0.95
1.12
1.04
0.68
0.19
-0.24
-0.46
-0.43
-0.23
-0.05
-0.04
-0.24
-0.54
-0.75
-0.74
-0.47
-0.09
0.21
0.27
0.04
-0.37
-0.82
-1.16
-1.32
-1.3
-1.14
-0.89
-0.59
-0.24
0.14
0.51
0.88
1.24
1.62
2.05
2.47
2.75
2.76
2.44
1.85
1.24
0.88
0.97
1.46
2.14
2.7
2.89
2.64
2.05
1.31
0.58
-0.01
-0.45
-0.73
-0.9
-0.97
-0.98
-0.98
-1.05
-1.21
-1.49
-1.83
-2.11
-2.23
-2.07
-1.62
-0.95
-0.23
0.35
0.64
0.58
0.23
-0.31
-0.92
-1.5
-1.99
-2.29
-2.38
-2.26
-1.99
-1.67
-1.38
-1.19
-1.09
-1.03
-0.92
-0.71
-0.38
0.08
0.6
1.15
1.65
2.07
2.35
2.48
2.44
2.25
1.95
1.57
1.15
0.73
0.31
-0.11
-0.52
-0.88
-1.11
-1.1
-0.77
-0.13
0.67
1.46
2.09
2.51
2.72
2.76
2.63
2.31
1.78
1.05
0.18
-0.71
-1.51
-2.11
-2.44
-2.44
-2.16
-1.68
-1.15
-0.7
-0.41
-0.24
-0.12
0.02
0.2
0.38
0.48
0.46
0.39
0.34
0.44
0.74
1.21
1.72
2.08
2.14
1.81
1.15
0.31
-0.51
-1.11
-1.37
-1.22
-0.72
0.03
0.86
1.62
2.21
2.58
2.76
2.81
2.81
2.8
2.81
2.81
2.83
2.91
3.09
3.37
3.69
3.91
3.94
3.74
3.39
3.02
2.77
2.66
2.63
2.52
2.18
1.53
0.62
-0.46
-1.56
-2.53
-3.31
-3.83
-4.12
-4.31
-4.52
-4.89
-5.47
-6.21
-6.99
-7.65
-8.11
-8.39
-8.51
-8.55
-8.5
-8.31
-7.95
-7.36
-6.5
-5.4
-4.14
-2.86
-1.68
-0.72
0.05
0.72
1.4
2.11
2.82
3.46
4.06
4.79
5.89
7.5
9.46
11.28
12.36
12.3
11.17
9.55
8.29
8.1
9.26
11.44
13.9
15.7
16.15
15.14
13.15
11.11
10.01
10.49
12.61
15.66
18.48
19.72
18.42
14.35
8.09
1.05
-5.08
-8.85
-10.08
-10.57
-14.53
-26.75
-50.4
-84.5
-122.84
-155.21
-171.13
-163.69
-132.29
-82.71
-24.63
31.53
76.95
105.83
115.37
106.45
84.17
56.88
33.99
22.07
21.92
28.72
35.05
34.61
25.59
10.73
-5.05
-17.29
-24.24
-26.62
-25.78
-22.35
-16.29
-7.23
3.92
15.0
23.35
26.81
24.59
17.71
8.44
-0.59
-6.75
-8.15
-3.94
5.91
19.62
33.48
42.69
42.84
32.51
14.24
-6.39
-23.31
-32.33
-32.87
-27.24
-19.28
-12.4
-8.05
-5.86
-4.45
-2.54
0.15
2.98
5.17
6.01
5.46
4.1
2.74
2.16
2.49
2.91
2.19
-0.72
-5.67
-11.32
-15.61
-16.84
-14.2
-8.52
-1.72
4.03
7.13
7.69
7.03
6.94
8.56
11.77
15.35
17.79
17.53
13.6
6.12
-3.47
-12.5
-17.86
-17.47
-11.32
-1.59
8.02
13.93
14.54
10.35
3.7
-2.71
-7.42
-10.24
-11.9
-13.02
-13.49
-12.74
-10.58
-7.42
-4.45
-2.7
-2.4
-2.81
-2.42
-0.23
3.78
8.25
11.42
12.08
10.12
6.58
2.85
0.11
-0.89
-0.07
2.07
4.68
6.74
7.54
7.11
6.0
5.07
4.74
4.68
4.31
2.91
0.54
-2.23
-4.71
-6.4
-7.41
-8.26
-9.2
-10.3
-11.11
-11.03
-9.89
-7.74
-5.15
-2.76
-1.07
-0.46
-0.84
-1.94
-3.39
-4.8
-6.02
-6.97
-7.75
-8.52
-9.4
-10.58
-12.12
-13.96
-15.98
-18.08
-20.31
-22.85
-25.77
-29.11
-32.86
-36.98
-41.62
-46.73
-52.12
-57.66
-63.0
-68.19
-73.46
-79.08
-85.4
-92.22
-99.12
-105.54
-111.07
-115.95
-120.66
-126.02
-132.79
-141.08
-150.27
-159.02
-165.42
-167.52
-163.57
-152.2
-132.94
-106.49
-74.39
-38.28
1.0
44.07
91.57
143.78
200.1
257.94
312.59
358.38
390.65
407.09
408.45
397.34
376.8
349.94
318.61
283.6
244.73
201.08
151.24
93.71
31.29
-34.55
-99.66
-157.79
-202.92
-232.1
-246.92
-252.81
-256.68
-263.41
-274.02
-284.49
-287.96
-277.17
-246.78
-194.67
-121.9
-31.98
66.61
162.86
245.92
306.87
340.98
348.21
332.55
300.36
258.46
212.64
167.2
125.52
89.41
59.95
37.43
21.02
9.11
-0.53
-10.46
-22.11
-34.77
-47.32
-58.68
-68.63
-77.97
-87.08
-94.47
-97.15
-91.8
-75.5
-50.96
-24.04
-1.64
11.07
13.19
8.5
1.99
-5.44
-12.17
-23.48
-44.22
-73.56
-102.9
-119.49
-110.21
-72.76
-18.55
33.09
64.95
72.22
63.25
51.99
47.84
50.2
50.49
41.22
24.05
9.54
11.22
35.92
77.64
119.81
144.14
139.33
106.54
57.65
7.91
-30.42
-52.52
-60.62
-60.89
-59.0
-57.96
-57.32
-54.95
-49.42
-41.52
-33.92
-29.61
-30.04
-34.17
-39.12
-41.7
-39.81
-33.58
-25.08
-17.25
-12.77
-13.31
-19.13
-28.76
-39.11
-45.96
-45.22
-34.71
-15.94
6.5
26.49
39.18
42.86
38.81
29.02
14.24
-6.8
-35.95
-72.48
-111.95
-147.0
-170.52
-178.74
-171.99
-153.57
-126.05
-91.98
-52.3
-8.43
36.43
77.73
111.29
134.71
147.23
148.92
139.24
118.0
86.24
47.55
7.81
-26.52
-50.62
-62.18
-61.54
-51.2
-34.54
-16.42
-2.48
1.97
-5.75
-23.69
-44.9
-59.95
-61.04
-45.43
-16.63
17.3
47.97
69.9
81.99
86.55
86.91
85.21
82.07
77.16
70.41
63.45
59.25
60.66
68.44
79.8
88.68
88.1
72.99
43.29
4.51
-34.24
-64.02
-79.7
-81.79
-75.44
-67.33
-62.57
-62.64
-65.85
-69.31
-70.79
-69.46
-65.27
-57.82
-45.84
-28.11
-4.98
20.34
41.89
53.12
49.85
32.51
6.28
-21.03
-42.28
-53.55
-54.85
-48.75
-38.03
-24.19
-7.51
11.89
32.85
52.85
69.05
79.84
85.7
88.98
92.19
96.21
99.38
98.14
88.76
69.75
43.04
13.59
-12.37
-29.94
-37.34
-36.29
-30.84
-25.28
-22.25
-22.03
-23.17
-23.74
-22.69
-20.26
-17.53
-15.56
-14.66
-14.11
-12.8
-9.97
-5.67
-0.81
3.51
6.47
8.04
8.85
9.95
12.14
15.65
20.13
24.7
28.59
31.3
32.81
33.48
33.8
33.95
33.77
32.71
30.16
25.72
19.41
11.59
2.95
-5.79
-14.22
-22.13
-29.17
-35.64
-41.4
-46.15
-49.51
-51.21
-51.24
-50.03
-48.3
-46.94
-46.26
-46.23
-46.45
-46.31
-45.42
-43.75
-41.78
-40.13
-39.36
-39.64
-40.9
-42.83
-45.14
-47.32
-48.57
-47.77
-43.82
-36.21
-25.47
-13.07
-1.09
8.69
15.28
18.6
19.12
17.48
14.29
9.99
5.35
1.34
-1.2
-1.71
-0.3
2.32
4.84
5.56
2.65
-4.98
-16.8
-30.21
-40.85
-44.32
-38.15
-23.17
-3.41
15.59
29.38
36.22
37.34
35.53
33.32
31.75
30.34
28.14
24.74
20.8
17.53
15.94
16.29
17.76
19.03
19.01
17.27
14.24
10.94
8.45
7.39
7.74
8.8
9.7
9.71
8.64
6.79
4.78
3.29
2.64
2.79
3.35
3.82
3.84
3.27
2.31
1.26
0.44
0.01
-0.06
0.05
0.13
0.02
-0.31
-0.78
-1.25
-1.64
-1.9
-2.04
-2.16
-2.33
-2.59
-2.94
-3.34
-3.78
-4.2
-4.64
-5.12
-5.68
-6.36
-7.14
-7.97
-8.83
-9.64
-10.41
-11.17
-11.98
-12.98
-14.2
-15.63
-17.15
-18.59
-19.8
-20.72
-21.42
-22.03
-22.73
-23.55
-24.36
-24.78
-24.39
-22.82
-19.95
-16.0
-11.47
-6.93
-2.83
0.7
4.03
7.71
12.22
17.75
24.05
30.51
36.52
41.61
45.78
49.41
53.15
57.69
63.62
71.27
80.39
89.89
97.71
101.25
98.12
87.05
68.62
45.11
19.76
-4.24
-24.6
-40.18
-50.7
-56.29
-57.28
-54.28
-48.58
-42.14
-37.25
-35.63
-37.82
-42.84
-48.63
-52.89
-54.15
-52.47
-49.36
-47.11
-47.67
-51.97
-59.73
-69.85
-80.55
-89.73
-95.28
-95.41
-89.31
-77.79
-63.43
-49.71
-39.39
-32.83
-27.92
-21.38
-10.84
3.7
19.82
34.11
44.29
48.99
48.98
46.61
44.4
43.87
44.74
44.93
41.36
31.42
14.46
-7.28
-29.2
-46.33
-55.69
-58.07
-57.76
-60.12
-68.44
-81.64
-94.13
-98.2
-87.51
-59.89
-18.22
30.87
79.31
120.02
148.08
161.09
158.41
140.6
109.26
67.5
20.21
-26.35
-66.14
-95.39
-114.23
-126.66
-138.84
-155.88
-178.88
-203.9
-223.42
-229.72
-218.52
-190.79
-152.24
-110.63
-72.38
-40.36
-13.51
11.65
39.05
71.35
109.36
152.05
196.67
238.84
272.82
292.94
295.86
282.97
261.14
240.66
230.9
235.55
250.62
266.42
272.79
264.42
243.22
216.91
194.95
184.56
188.75
206.67
234.97
269.34
304.86
335.98
357.03
363.56
353.79
329.28
294.36
254.16
213.78
177.08
146.13
120.83
99.12
77.68
52.94
22.55
-14.41
-55.89
-98.14
-137.68
-173.22
-206.41
-240.85
-281.15
-331.29
-394.71
-470.82
-554.92
-638.49
-711.38
-764.28
-790.92
-790.39
-766.45
-726.89
-676.69
-616.83
-544.72
-458.19
-359.15
-254.8
-156.83
-66.77
7.4
59.58
89.84
107.12
124.4
150.67
191.78
247.73
314.55
383.84
448.66
498.87
526.52
528.6
508.41
474.86
438.3
407.6
380.34
354.94
329.6
304.04
280.59
262.42
253.07
249.05
245.27
236.48
221.11
199.72
172.68
140.84
105.14
66.75
26.54
-14.12
-54.44
-92.97
-128.84
-164.56
-202.39
-243.37
-287.06
-332.66
-379.19
-425.92
-471.26
-513.23
-553.62
-593.07
-630.51
-663.02
-687.39
-701.0
-702.39
-690.65
-640.24
-540.12
-396.71
-232.62
-74.3
59.78
162.73
236.09
285.78
318.54
336.21
340.24
332.81
317.41
297.61
275.63
251.89
226.09
199.61
171.45
143.94
122.26
112.11
116.21
132.23
153.62
172.85
184.67
185.93
177.46
162.49
144.72
126.7
109.41
92.9
77.37
61.29
43.87
25.07
5.2
-15.41
-36.39
-57.21
-77.0
-94.63
-108.56
-118.02
-123.2
-125.15
-125.63
-125.69
-125.86
-126.08
-125.8
-123.76
-118.99
-111.34
-101.99
-92.15
-81.93
-71.4
-60.43
-48.62
-34.84
-18.14
1.76
24.52
48.54
73.77
99.81
126.04
146.2
158.09
161.38
156.48
149.73
140.23
127.86
112.11
92.57
69.16
42.77
14.72
-13.62
-40.9
-73.22
-109.51
-146.84
-182.0
-210.28
-231.25
-245.49
-253.79
-256.8
-256.79
-253.82
-248.5
-241.8
-234.73
-228.08
-222.08
-216.83
-212.38
-209.21
-206.4
-203.51
-200.46
-197.27
-193.99
-190.32
-185.93
-180.55
-174.31
-166.58
-157.2
-146.3
-134.18
-121.27
-107.8
-93.95
-79.96
-66.18
-52.57
-39.22
-26.32
-14.0
-2.45
8.35
18.42
27.81
36.47
44.46
51.75
58.25
63.9
68.62
72.38
75.22
77.1
78.01
77.92
76.87
74.95
72.36
69.35
66.2
63.12
60.24
57.55
55.0
52.53
50.15
48.04
46.43
45.58
45.63
46.49
47.9
49.48
50.97
52.34
53.92
56.29
60.07
65.66
73.01
81.61
90.69
99.54
107.94
116.25
125.36
136.28
149.65
165.41
182.74
200.4
217.17
232.48
246.53
260.39
275.63
293.92
316.51
343.53
373.47
403.13
428.17
444.39
449.13
442.29
426.37
405.47
383.73
363.87
346.14
328.34
306.58
276.89
237.02
187.68
132.94
79.06
32.5
-2.28
-24.07
-34.63
-37.21
-34.9
-29.72
-22.78
-15.03
-7.74
-2.34
0.41
1.09
1.42
3.33
7.8
14.1
19.93
22.38
19.12
9.34
-5.84
-23.92
-41.93
-57.5
-69.58
-78.7
-86.62
-95.74
-108.6
-127.42
-153.69
-187.68
-227.88
-270.63
-310.63
-342.09
-360.43
-363.98
-354.56
-337.04
-317.91
-303.3
-297.14
-299.92
-308.51
-317.2
-319.51
-310.3
-286.94
-249.4
-199.17
-137.91
-66.86
12.75
98.47
185.81
268.55
340.41
396.88
436.28
459.7
469.53
468.26
457.74
439.15
413.53
382.08
346.22
307.69
268.37
229.94
193.71
160.15
128.7
97.64
64.44
26.78
-15.92
-61.01
-102.14
-130.05
-135.29
-111.99
-61.02
8.81
82.88
145.41
184.73
196.73
184.91
157.29
121.93
83.75
43.64
0.14
-47.79
-98.66
-147.59
-187.26
-209.96
-209.89
-185.01
-137.99
-75.73
-7.7
56.63
110.18
149.91
176.92
195.09
209.31
223.67
240.49
260.05
280.66
298.93
310.42
310.78
297.22
269.91
232.25
189.66
147.44
108.51
72.4
35.65
-6.57
-58.16
-120.36
-190.98
-264.5
-333.03
-388.05
-422.59
-433.59
-423.39
-399.18
-370.62
-346.17
-329.92
-320.25
-311.28
-296.1
-270.26
-233.58
-189.99
-145.79
-107.58
-80.84
-68.96
-72.61
-89.17
-112.92
-136.35
-152.69
-158.8
-156.32
-150.83
-149.0
-155.11
-168.97
-186.38
-201.26
-208.76
-207.1
-197.7
-183.61
-167.96
-152.66
-138.25
-124.41
-110.62
-96.49
-81.63
-65.09
-45.24
-19.96
12.15
50.67
92.75
133.68
168.45
193.6
208.3
213.9
212.76
207.18
199.0
189.95
182.0
176.94
175.43
176.06
175.55
170.11
157.48
138.05
114.53
90.41
68.23
48.84
31.76
16.16
1.59
-11.98
-24.63
-36.54
-47.84
-58.24
-67.11
-73.97
-79.07
-83.35
-87.7
-92.0
-94.78
-94.01
-88.5
-79.12
-68.68
-60.68
-57.41
-58.89
-62.86
-66.06
-65.82
-61.36
-53.94
-46.1
-40.41
-38.21
-39.09
-41.17
-42.15
-40.49
-36.18
-30.67
-26.06
-23.97
-24.78
-27.48
-30.29
-31.58
-30.49
-27.14
-22.26
-16.57
-10.31
-2.96
6.29
17.85
30.82
42.54
49.14
46.89
33.78
10.61
-19.16
-50.43
-78.09
-98.32
-109.39
-111.72
-107.24
-98.87
-89.41
-80.74
-73.24
-65.78
-56.44
-43.86
-28.76
-14.44
-5.79
-6.83
-18.05
-35.04
-49.45
-52.17
-37.38
-5.53
36.41
77.32
106.18
115.84
104.97
77.72
41.46
4.11
-27.98
-50.98
-63.49
-65.91
-59.72
-47.0
-29.89
-10.43
9.66
29.19
47.46
64.19
79.3
92.82
104.79
115.27
124.44
132.56
140.09
147.53
155.4
164.16
174.09
184.95
195.78
204.77
209.56
208.01
199.13
183.59
163.69
142.66
123.47
107.84
95.65
85.35
74.93
63.01
49.39
34.69
19.39
2.97
-15.87
-38.11
-62.96
-87.16
-105.75
-114.05
-109.69
-93.78
-70.34
-44.44
-20.14
0.62
17.85
32.4
44.7
54.3
60.05
60.89
56.72
48.77
39.22
30.52
24.49
21.87
22.44
25.5
30.48
37.05
44.92
53.41
61.31
67.03
69.29
67.61
62.55
55.48
47.93
40.94
34.8
29.13
23.36
17.26
11.2
5.92
1.88
-1.46
-5.95
-14.33
-29.02
-50.76
-77.65
-105.24
-127.67
-139.46
-137.13
-120.18
-90.96
-53.73
-13.7
23.99
54.96
76.3
86.98
88.06
82.36
73.44
64.33
56.24
48.04
36.92
20.11
-3.31
-31.24
-58.92
-80.71
-92.41
-93.09
-85.36
-74.12
-64.63
-60.64
-63.73
-73.57
-88.93
-108.43
-130.62
-153.35
-173.38
-186.58
-189.22
-179.7
-159.63
-133.59
-107.21
-84.66
-66.85
-51.35
-34.18
-12.35
14.27
42.64
67.84
85.49
93.72
94.12
91.15
90.34
96.19
110.45
131.69
156.26
180.11
200.63
217.62
232.68
247.83
263.68
278.67
289.34
291.86
283.85
265.47
239.55
210.31
181.55
154.96
129.71
103.21
72.96
38.18
0.28
-38.0
-74.08
-106.68
-135.87
-162.02
-184.79
-202.85
-214.55
-218.95
-216.36
-208.19
-196.08
-181.19
-164.22
-145.49
-125.51
-105.07
-85.23
-67.05
-51.48
-39.07
-29.72
-22.52
-15.79
-7.62
3.11
15.9
28.49
37.53
40.05
34.8
23.07
8.16
-6.05
-16.92
-24.1
-29.43
-35.62
-44.4
-55.34
-66.3
-74.71
-79.41
-81.12
-81.45
-81.14
-78.92
-72.06
-58.53
-39.14
-18.4
-2.93
1.69
-6.43
-24.62
-47.32
-68.45
-83.69
-90.97
-89.87
-80.69
-64.32
-43.03
-21.01
-3.72
4.09
0.57
-11.9
-27.63
-40.03
-44.45
-39.77
-28.31
-14.06
-0.73
9.6
16.56
20.74
22.81
23.31
22.86
22.86
25.27
31.92
43.31
57.89
72.44
83.28
88.11
87.01
82.06
75.86
69.78
63.4
55.19
43.97
29.93
14.47
-0.54
-13.69
-24.05
-30.63
-31.92
-26.01
-11.7
10.18
36.14
60.73
78.37
85.41
81.27
68.49
51.41
34.56
21.36
13.37
10.11
9.11
6.41
-2.61
-21.61
-51.38
-88.46
-125.3
-152.62
-163.32
-155.89
-135.69
-113.11
-99.48
-102.31
-122.17
-152.73
-183.55
-204.46
-209.24
-197.56
-174.32
-147.35
-124.35
-110.19
-105.62
-107.47
-110.22
-108.26
-98.05
-79.37
-55.34
-31.36
-13.52
-6.86
-14.02
-34.65
-65.44
-101.09
-135.44
-162.49
-177.35
-176.86
-160.25
-129.44
-89.13
-46.09
-7.46
21.35
38.63
46.94
52.29
61.7
80.43
109.92
147.3
186.43
220.13
242.26
249.22
240.51
218.39
187.06
151.68
117.62
89.89
72.59
68.27
77.07
96.18
120.31
143.12
159.2
165.76
163.07
153.45
139.91
125.01
110.59
98.05
88.41
81.84
76.96
70.89
60.45
43.81
21.59
-3.75
-29.53
-54.11
-77.32
-99.26
-118.8
-133.4
-140.47
-139.32
-132.26
-123.62
-117.16
-113.99
-112.28
-108.72
-101.11
-90.09
-78.9
-71.76
-71.35
-77.1
-85.52
-91.69
-90.66
-79.21
-56.8
-25.84
8.27
38.48
58.18
61.64
45.36
10.28
-37.64
-88.1
-128.92
-150.49
-148.36
-122.68
-79.68
-29.6
18.13
57.06
84.47
100.13
102.77
90.45
64.65
28.12
-14.81
-56.14
-86.88
-99.78
-92.56
-71.43
-47.83
-30.3
-25.51
-37.17
-63.48
-100.23
-142.45
-173.7
-180.43
-176.97
-171.52
-159.18
-138.67
-110.61
-79.32
-50.83
-30.98
-25.27
-35.55
-54.86
-74.67
-88.13
-81.99
-50.59
2.97
68.15
130.58
175.23
202.92
217.59
221.78
217.68
206.28
188.98
168.11
145.31
121.42
98.87
78.62
61.07
47.67
39.26
35.97
36.8
39.3
40.69
39.97
36.09
28.41
17.61
4.99
-7.17
-16.0
-19.16
-15.67
-5.87
7.62
21.29
32.21
38.46
39.6
36.38
30.35
23.28
16.9
12.06
8.75
6.18
2.89
-2.56
-10.85
-21.4
-32.58
-42.2
-48.52
-50.82
-49.43
-45.37
-39.85
-33.81
-27.87
-22.3
-17.01
-11.55
-5.22
2.61
12.17
22.94
33.7
42.79
48.66
50.2
47.13
40.06
30.59
21.26
15.15
15.01
22.12
35.52
52.21
68.33
80.93
89.36
95.24
101.16
108.95
118.28
126.77
131.21
129.14
119.97
105.4
88.97
75.21
68.48
71.71
84.91
104.42
123.28
133.1
127.15
103.1
64.1
17.57
-27.84
-65.63
-93.36
-112.41
-126.23
-138.2
-150.28
-162.93
-175.53
-187.09
-196.35
-201.8
-201.8
-195.14
-181.85
-163.62
-143.53
-124.83
-109.84
-99.15
-91.93
-86.86
-82.91
-79.47
-76.08
-72.02
-66.2
-57.79
-46.65
-33.58
-19.97
-7.04
4.89
16.7
29.99
46.24
65.7
86.63
105.36
117.26
118.55
107.96
87.51
61.82
36.37
15.51
1.3
-6.42
-9.17
-8.95
-7.89
-8.34
-12.8
-23.2
-39.87
-60.63
-81.11
-96.32
-102.61
-99.22
-88.25
-73.38
-58.15
-44.88
-34.6
-27.71
-24.75
-26.34
-32.51
-42.01
-52.19
-59.69
-61.7
-56.81
-45.01
-27.19
-4.51
21.79
50.1
78.11
103.11
122.73
135.9
143.22
146.42
147.48
147.66
147.39
146.76
146.15
146.43
148.54
152.84
158.72
164.73
169.19
170.89
169.45
165.2
158.87
151.31
143.23
135.2
127.5
119.93
111.66
101.19
86.72
66.84
41.16
10.44
-23.74
-59.74
-96.48
-133.46
-170.24
-205.65
-237.14
-260.79
-272.17
-267.8
-246.55
-210.53
-164.63
-115.12
-67.93
-27.17
5.26
29.23
45.61
55.73
61.14
63.66
65.32
67.79
71.62
75.9
78.58
77.43
71.1
59.54
43.8
25.57
6.8
-10.3
-23.38
-30.15
-29.06
-20.01
-4.8
13.26
30.29
43.09
50.06
51.23
47.84
41.58
34.25
27.62
23.41
22.91
26.46
32.95
39.96
44.59
44.67
39.64
30.57
19.08
6.04
-9.25
-28.55
-53.3
-83.15
-115.46
-146.12
-170.98
-187.21
-193.59
-190.26
-178.06
-158.28
-132.97
-105.34
-79.61
-59.95
-48.93
-46.24
-48.7
-51.61
-50.79
-44.38
-33.33
-20.5
-8.89
-0.1
6.38
12.63
21.0
32.8
47.55
63.22
77.29
87.83
94.15
96.71
96.44
94.12
90.13
84.56
77.68
70.26
63.71
59.89
60.52
66.41
76.78
88.96
98.92
102.55
97.51
84.45
67.34
52.0
43.77
45.15
54.69
67.47
77.02
77.66
66.13
42.12
7.83
-32.88
-75.25
-114.2
-144.87
-163.58
-168.88
-162.17
-147.18
-128.41
-109.16
-90.46
-71.39
-50.7
-28.49
-6.79
11.4
24.04
31.45
35.99
40.5
46.35
52.85
58.05
60.46
60.25
59.11
58.97
60.65
63.35
65.25
64.49
60.05
52.07
41.51
29.69
17.99
7.53
-1.08
-8.08
-14.61
-22.2
-31.8
-42.86
-53.25
-60.13
-61.45
-57.02
-48.55
-38.66
-29.64
-22.61
-17.56
-14.04
-11.81
-10.9
-11.23
-11.93
-11.27
-7.28
1.06
12.84
25.04
33.56
35.05
28.41
15.48
0.12
-13.57
-22.95
-27.61
-28.86
-28.4
-27.16
-24.95
-21.1
-15.39
-8.62
-2.34
1.86
3.26
2.19
-0.38
-3.58
-7.05
-10.9
-15.21
-19.45
-22.26
-21.82
-16.55
-6.08
8.15
23.08
34.87
40.37
38.51
30.8
20.99
13.65
12.57
19.48
33.71
52.76
73.36
92.47
107.88
118.22
122.81
121.46
114.45
102.52
86.9
69.16
50.97
33.86
19.04
7.3
-1.01
-6.08
-8.58
-9.53
-10.04
-10.94
-12.55
-14.57
-16.31
-17.08
-16.51
-14.63
-11.81
-8.6
-5.56
-3.25
-2.05
-2.1
-3.06
-4.17
-4.55
-3.82
-2.6
-2.51
-5.52
-12.81
-23.99
-37.06
-49.2
-58.05
-62.64
-63.51
-62.13
-60.02
-58.22
-57.3
-57.45
-58.48
-59.56
-58.86
-53.8
-42.0
-22.56
3.04
31.09
56.95
76.87
89.37
95.45
97.7
98.84
100.46
102.6
104.07
103.34
99.21
91.07
78.9
63.0
43.8
21.88
-2.08
-27.33
-53.02
-78.24
-101.81
-122.24
-137.83
-146.91
-148.32
-141.78
-128.04
-108.71
-86.05
-62.66
-41.33
-24.79
-15.21
-13.63
-19.45
-30.45
-43.44
-55.31
-63.98
-68.72
-69.83
-67.9
-63.27
-55.94
-45.97
-33.89
-21.08
-9.35
-0.32
5.3
8.13
9.89
12.67
17.93
25.71
34.39
41.22
43.43
39.5
29.74
16.18
1.7
-11.05
-20.21
-24.87
-24.65
-19.56
-10.03
2.67
16.33
28.26
36.15
39.16
38.46
36.71
36.75
40.04
45.92
51.8
54.41
51.28
41.83
27.26
9.83
-8.27
-25.53
-40.97
-53.46
-61.21
-62.0
-54.04
-37.09
-12.97
14.88
42.57
67.0
86.67
101.59
112.71
121.2
128.04
133.87
138.97
143.33
146.56
148.0
147.01
143.24
136.64
127.28
115.04
99.55
80.52
58.42
34.69
11.44
-9.41
-27.21
-42.89
-58.4
-75.32
-93.72
-111.67
-126.13
-134.56
-136.36
-133.35
-128.93
-126.64
-128.66
-135.19
-144.72
-154.85
-163.12
-167.53
-166.68
-159.87
-147.29
-130.26
-111.37
-93.88
-80.79
-73.76
-72.35
-74.17
-75.67
-73.23
-64.2
-47.29
-22.73
7.84
41.54
74.48
102.39
121.62
130.38
129.42
121.87
112.2
104.68
101.77
103.56
108.01
112.02
112.82
108.85
100.18
88.23
75.11
62.89
53.12
46.69
44.11
45.79
52.05
62.84
77.24
93.2
107.85
118.43
123.34
122.75
118.35
112.26
105.84
99.0
90.45
78.69
63.2
44.8
25.23
6.14
-11.86
-29.49
-48.24
-69.31
-92.66
-116.66
-138.69
-156.13
-167.52
-173.07
-174.35
-173.37
-171.66
-169.88
-168.26
-167.37
-168.53
-173.35
-182.59
-195.22
-208.22
-217.55
-219.64
-212.61
-196.64
-173.45
-145.09
-113.24
-78.87
-42.7
-5.69
30.63
64.27
93.22
116.01
132.12
141.97
146.62
147.1
143.95
137.1
126.4
112.38
96.75
82.08
70.92
64.52
62.35
62.28
61.62
58.31
51.7
42.65
32.97
24.61
18.94
16.43
16.69
18.81
21.76
24.8
27.79
31.28
36.33
44.0
54.6
67.05
78.58
85.27
83.18
69.87
45.5
13.1
-22.38
-55.73
-82.92
-101.84
-112.01
-113.83
-107.98
-95.45
-78.04
-58.66
-41.07
-28.65
-23.17
-23.94
-28.19
-32.44
-34.06
-32.24
-27.83
-22.37
-17.0
-11.88
-6.45
-0.12
7.05
14.3
20.55
25.2
28.42
31.08
34.15
38.11
42.63
46.6
48.56
47.21
41.76
32.02
18.31
1.32
-18.08
-38.77
-59.27
-77.63
-91.64
-99.33
-99.65
-92.91
-80.79
-65.71
-49.83
-34.39
-19.49
-4.6
10.69
26.05
40.42
52.33
60.66
65.11
66.44
66.2
66.14
67.61
71.03
75.87
80.87
84.52
85.74
84.15
80.15
74.77
69.27
64.78
61.94
60.73
60.35
59.38
56.13
49.22
38.21
23.8
7.74
-7.69
-20.38
-28.94
-33.01
-33.33
-31.43
-29.26
-28.57
-30.5
-35.27
-42.25
-50.32
-58.28
-65.21
-70.48
-73.66
-74.26
-71.82
-66.19
-57.77
-47.77
-37.91
-29.85
-24.62
-22.21
-21.58
-20.95
-18.2
-11.45
0.45
17.31
37.2
56.5
70.76
76.3
71.72
58.68
41.37
24.79
12.91
7.44
7.86
12.18
18.01
23.11
25.59
23.95
17.3
5.79
-9.16
-25.2
-39.74
-50.85
-57.8
-60.94
-61.37
-60.53
-59.98
-61.33
-65.92
-74.4
-86.16
-99.28
-111.04
-118.9
-121.61
-119.65
-115.03
-110.27
-107.18
-106.31
-106.92
-107.89
-108.51
-109.03
-110.42
-113.67
-119.09
-125.96
-132.65
-136.98
-136.76
-130.17
-116.02
-94.07
-65.32
-32.05
2.52
34.99
62.73
84.59
101.13
114.06
125.27
135.98
146.5
156.43
165.31
173.0
179.52
184.75
188.18
189.16
187.34
183.2
177.79
171.98
165.55
156.98
144.16
125.76
102.17
75.61
49.1
25.14
4.92
-11.45
-24.17
-33.11
-37.78
-38.04
-34.69
-29.7
-25.55
-24.27
-26.57
-31.57
-37.23
-41.18
-41.66
-38.03
-30.75
-21.09
-10.45
0.19
10.53
20.75
31.11
41.51
51.39
59.97
66.54
70.84
73.15
74.11
74.48
74.93
75.78
76.97
77.99
78.07
76.42
72.57
66.7
59.57
52.14
44.86
37.29
28.18
16.09
0.54
-17.37
-35.0
-49.23
-57.72
-60.08
-58.0
-54.51
-52.59
-53.84
-58.06
-63.76
-69.16
-72.99
-74.8
-74.47
-71.71
-65.83
-56.08
-42.45
-26.28
-10.36
2.0
8.18
7.34
0.6
-9.75
-21.53
-33.72
-46.44
-60.0
-73.71
-85.36
-91.93
-91.32
-84.0
-73.36
-64.43
-61.31
-65.01
-72.83
-79.61
-80.16
-71.43
-53.54
-29.25
-2.62
22.45
43.0
57.24
64.41
64.61
58.92
49.36
38.73
30.21
26.52
29.26
38.18
50.85
62.97
69.7
67.31
54.91
34.97
12.43
-7.03
-19.24
-23.01
-20.35
-15.2
-11.59
-12.09
-17.22
-26.07
-36.81
-47.88
-58.35
-68.18
-77.62
-86.86
-95.64
-103.34
-109.42
-112.9
-112.55
-106.89
-94.95
-76.88
-54.84
-32.88
-13.8
-0.9
5.26
6.15
5.96
7.3
10.9
14.91
17.5
19.19
23.02
33.18
51.56
75.46
97.93
111.11
110.12
95.77
74.48
55.22
45.89
50.02
65.8
87.71
109.19
125.0
132.63
132.5
126.85
118.73
110.95
105.23
102.71
103.96
108.66
114.15
116.7
112.49
99.74
81.62
61.28
41.49
23.81
8.32
-6.15
-21.48
-39.19
-59.32
-80.27
-99.54
-114.23
-122.13
-122.54
-116.47
-106.06
-93.89
-82.49
-74.13
-70.66
-72.55
-78.55
-85.96
-91.47
-92.37
-87.68
-78.51
-67.72
-58.69
-53.62
-52.48
-53.34
-53.42
-50.58
-44.4
-36.26
-28.66
-24.01
-23.41
-26.07
-29.63
-31.08
-27.91
-19.2
-5.92
9.47
24.09
35.72
43.49
47.95
50.46
52.35
54.23
55.87
56.43
55.1
51.59
46.27
40.04
33.98
29.15
26.43
26.25
28.34
31.75
35.04
37.01
37.34
36.79
36.74
38.26
41.36
44.91
47.34
47.59
45.64
42.35
38.7
35.07
31.22
26.92
22.55
19.43
19.15
22.6
29.37
37.76
45.5
50.78
52.76
51.7
48.53
44.23
39.41
34.16
28.23
21.38
13.74
5.83
-1.78
-8.89
-16.11
-24.71
-36.15
-51.25
-69.71
-89.97
-109.96
-127.81
-142.55
-154.19
-163.3
-170.37
-175.47
-178.25
-178.13
-174.54
-167.03
-155.12
-138.45
-116.94
-91.1
-62.22
-32.1
-2.63
24.6
48.39
67.8
82.02
90.42
92.99
90.67
85.39
79.48
74.83
72.13
70.75
69.23
66.11
60.46
52.1
41.46
29.34
16.78
4.92
-5.17
-12.78
-17.69
-20.18
-20.84
-20.23
-18.67
-16.21
-12.64
-7.78
-1.71
5.23
12.29
18.53
23.05
25.31
25.33
23.81
21.88
20.63
20.73
22.22
24.56
26.98
28.85
29.97
30.51
30.73
30.65
29.88
27.84
24.11
18.82
12.88
7.55
3.94
2.39
2.27
2.2
0.59
-3.76
-11.1
-20.59
-30.52
-38.88
-43.97
-44.98
-42.25
-37.0
-30.82
-25.06
-20.4
-16.93
-14.3
-12.13
-10.12
-8.03
-5.51
-2.15
2.38
8.09
14.6
21.26
27.43
32.61
36.52
38.97
39.86
39.19
37.16
34.25
31.1
28.13
25.31
22.14
18.02
12.75
6.78
1.16
-2.92
-4.68
-4.06
-1.71
1.51
4.86
8.08
11.32
14.85
18.72
22.64
26.08
28.58
30.11
31.06
32.12
33.77
36.01
38.36
40.13
40.91
40.79
40.31
40.16
40.81
42.35
44.46
46.65
48.34
48.96
47.98
44.87
39.31
31.38
21.71
11.53
2.45
-3.91
-6.44
-4.97
-0.45
5.33
10.3
12.74
11.77
7.32
-0.19
-10.29
-22.69
-37.33
-54.09
-72.62
-92.27
-112.1
-131.04
-147.93
-161.61
-171.05
-175.53
-174.68
-168.62
-157.88
-143.21
-125.59
-106.25
-86.56
-68.0
-51.78
-38.5
-27.96
-19.14
-10.55
-0.83
10.83
24.35
38.83
52.88
65.19
74.84
81.55
85.66
87.76
88.5
88.23
86.95
84.27
79.58
72.2
61.73
48.25
32.4
15.38
-1.41
-16.81
-30.24
-41.78
-51.87
-60.87
-68.62
-74.55
-77.94
-78.53
-76.79
-73.82
-70.82
-68.49
-66.51
-63.52
-57.63
-47.04
-30.95
-10.01
13.57
36.37
54.61
65.04
65.98
57.64
42.18
22.92
3.51
-12.84
-23.93
-28.66
-27.16
-20.6
-10.92
-0.3
9.39
17.12
22.88
27.55
32.51
39.08
48.13
59.81
73.41
87.43
99.88
108.78
112.56
110.51
102.81
90.26
73.92
54.7
33.18
9.62
-15.86
-42.95
-70.78
-97.44
-119.86
-134.16
-136.8
-126.02
-103.01
-71.97
-38.92
-9.62
12.26
26.01
33.27
36.73
38.53
39.59
39.68
38.2
35.21
31.91
30.4
32.78
39.96
51.1
63.9
75.79
85.25
92.54
99.34
107.47
117.5
128.06
136.4
139.58
135.63
124.29
106.94
86.28
65.75
48.99
38.85
36.54
41.16
50.03
59.94
68.77
76.2
83.23
90.65
97.67
101.71
99.42
88.46
68.5
41.05
8.63
-26.09
-60.53
-92.11
-118.01
-135.63
-143.42
-141.98
-134.42
-125.68
-120.91
-123.6
-134.17
-149.63
-164.52
-172.7
-169.56
-154.04
-129.43
-102.56
-81.36
-71.89
-76.05
-91.06
-110.96
-129.06
-140.2
-141.67
-132.9
-114.59
-88.05
-55.49
-20.37
12.48
37.92
52.25
54.86
48.59
38.44
29.29
23.58
20.44
16.38
7.25
-9.38
-32.52
-57.69
-78.4
-88.75
-85.82
-70.87
-48.69
-25.48
-6.45
5.63
10.52
9.48
4.14
-4.25
-14.71
-26.03
-36.5
-44.25
-47.96
-47.54
-44.16
-39.68
-35.85
-33.86
-34.05
-36.14
-39.58
-43.83
-48.46
-53.12
-57.47
-61.13
-63.64
-64.59
-63.61
-60.62
-55.81
-49.73
-43.26
-37.56
-33.73
-32.49
-33.7
-36.34
-38.66
-38.69
-34.82
-26.34
-13.67
1.74
17.67
31.82
42.33
48.3
50.01
48.7
46.05
43.64
42.41
42.63
44.05
46.26
48.95
51.86
54.7
57.02
58.23
57.89
55.94
52.87
49.6
47.26
46.72
48.24
51.39
55.18
58.41
60.1
59.87
58.02
55.43
53.3
52.71
54.38
58.48
64.5
71.28
77.19
80.38
79.36
73.45
63.23
50.39
37.22
25.8
17.3
11.7
7.98
4.75
0.89
-4.06
-9.89
-16.07
-22.0
-27.24
-31.4
-34.02
-34.43
-31.97
-26.3
-17.72
-7.44
2.71
10.82
15.65
17.12
16.29
14.7
13.61
13.55
14.28
15.32
16.47
18.04
20.66
24.93
31.18
39.41
49.42
60.77
72.58
83.33
91.03
93.75
90.41
81.33
68.11
52.93
37.68
23.38
10.23
-1.93
-13.09
-22.8
-30.31
-34.94
-36.43
-35.19
-32.18
-28.65
-25.82
-24.48
-24.77
-26.1
-27.5
-27.95
-26.95
-24.67
-21.87
-19.58
-18.63
-19.21
-20.85
-22.44
-22.41
-19.11
-11.31
1.42
18.29
37.28
55.49
69.81
77.65
77.56
69.51
54.74
35.49
14.37
-6.05
-23.75
-37.52
-46.96
-52.38
-54.43
-53.79
-51.07
-46.97
-42.52
-38.97
-37.57
-38.94
-42.81
-47.9
-52.42
-54.81
-54.36
-51.44
-47.15
-42.77
-39.3
-37.14
-36.14
-35.75
-35.16
-33.52
-30.2
-24.95
-18.14
-10.74
-3.97
1.12
4.11
5.36
5.92
7.02
9.54
13.65
18.9
24.54
30.0
35.1
40.0
44.91
49.63
53.49
55.6
55.34
52.79
48.79
44.71
42.06
42.12
45.62
52.56
62.07
72.49
81.68
87.74
89.67
87.76
83.4
78.29
73.58
69.35
64.72
58.55
50.23
40.15
29.56
20.12
13.29
9.92
10.15
13.4
18.52
24.07
28.62
31.21
31.69
30.78
29.84
30.37
33.35
38.99
46.74
55.73
65.23
74.9
84.72
94.45
103.3
109.85
112.48
110.16
103.06
92.66
81.17
70.64
62.03
55.07
48.58
41.36
32.81
23.12
13.04
3.27
-5.69
-13.66
-20.42
-25.68
-29.13
-30.74
-31.01
-30.8
-31.02
-32.19
-34.3
-36.97
-39.88
-43.08
-47.02
-52.23
-58.84
-66.44
-74.17
-81.24
-87.26
-92.54
-97.99
-104.71
-113.51
-124.48
-136.8
-148.78
-158.34
-163.58
-163.51
-158.47
-149.97
-140.02
-130.26
-121.31
-112.71
-103.53
-93.05
-81.38
-69.18
-57.26
-45.93
-34.86
-23.6
-12.23
-1.89
5.4
7.48
3.09
-7.42
-22.09
-37.81
-51.19
-59.37
-60.66
-54.93
-43.68
-29.55
-15.6
-4.21
3.81
9.53
15.37
24.0
37.14
54.85
75.67
97.41
118.02
136.27
151.72
164.48
174.73
182.53
187.81
190.62
191.34
190.85
190.25
190.4
191.38
192.03
190.16
183.26
169.56
148.95
123.14
95.13
68.05
44.03
23.66
6.25
-9.4
-24.21
-38.42
-51.72
-63.71
-74.1
-82.79
-89.67
-94.53
-97.09
-97.35
-95.69
-92.81
-89.34
-85.34
-80.26
-73.23
-63.75
-52.29
-40.4
-30.11
-23.17
-20.3
-21.1
-24.54
-29.62
-35.86
-43.26
-51.95
-61.58
-71.18
-79.41
-85.08
-87.69
-87.52
-85.36
-82.1
-78.35
-74.35
-70.17
-65.86
-61.56
-57.33
-53.01
-48.21
-42.52
-35.86
-28.67
-21.85
-16.42
-13.04
-11.8
-12.2
-13.49
-14.95
-16.25
-17.31
-18.27
-19.12
-19.64
-19.52
-18.47
-16.39
-13.46
-9.94
-5.98
-1.51
3.71
10.03
17.54
26.09
35.23
44.43
53.16
60.95
67.35
71.9
74.13
73.69
70.5
64.86
57.32
48.6
39.38
30.04
20.63
10.83
0.11
-11.98
-25.54
-40.12
-54.78
-68.28
-79.48
-87.58
-92.34
-94.0
-93.12
-90.42
-86.64
-82.43
-78.26
-74.28
-70.39
-66.17
-61.15
-55.0
-47.76
-39.79
-31.72
-24.17
-17.59
-12.15
-7.7
-3.9
-0.24
3.8
8.64
14.47
21.12
28.05
34.42
39.39
42.28
42.89
41.47
38.62
35.06
31.32
27.7
24.27
21.04
18.16
15.92
14.7
14.76
16.16
18.71
22.08
25.92
29.92
33.75
36.99
39.08
39.49
37.9
34.45
29.77
24.72
20.17
16.58
13.99
12.12
10.63
9.33
8.14
7.06
6.0
4.83
3.54
2.43
2.12
3.35
6.65
11.99
18.78
26.01
32.66
37.97
41.58
43.49
43.86
42.97
41.14
38.71
36.11
33.77
32.03
31.04
30.58
30.1
28.96
26.72
23.47
19.82
16.64
14.65
14.19
15.27
17.77
21.53
26.22
31.01
34.38
34.35
29.27
18.63
3.5
-13.85
-30.88
-45.78
-57.96
-67.7
-75.57
-81.7
-85.67
-86.92
-85.25
-81.24
-76.07
-71.15
-67.49
-65.33
-64.18
-63.11
-61.24
-58.05
-53.45
-47.77
-41.58
-35.43
-29.8
-24.97
-21.05
-18.12
-16.23
-15.52
-16.18
-18.39
-22.12
-27.04
-32.56
-38.05
-43.08
-47.63
-52.08
-56.97
-62.69
-69.28
-76.34
-83.22
-89.24
-93.89
-96.92
-98.34
-98.31
-96.98
-94.58
-91.32
-87.48
-83.24
-78.66
-73.65
-68.1
-62.08
-56.04
-50.78
-47.19
-45.88
-46.95
-49.93
-54.05
-58.56
-63.0
-67.18
-70.88
-73.66
-74.64
-72.69
-66.63
-55.6
-39.24
-17.78
7.94
36.61
66.61
96.27
124.16
149.38
171.66
191.14
208.08
222.43
233.72
241.15
244.12
242.62
237.47
230.1
221.99
214.24
207.24
200.73
194.06
186.47
177.22
165.62
151.2
133.83
114.0
92.95
72.56
54.75
40.9
31.37
25.46
21.82
18.98
15.83
11.75
6.5
0.09
-7.36
-15.48
-23.69
-31.23
-37.37
-41.63
-43.94
-44.73
-44.69
-44.59
-45.07
-46.41
-48.46
-50.59
-51.94
-51.79
-49.98
-46.91
-43.45
-40.46
-38.3
-36.74
-35.2
-33.14
-30.46
-27.63
-25.39
-24.36
-24.75
-26.31
-28.45
-30.44
-31.67
-31.8
-30.79
-28.94
-26.86
-25.27
-24.71
-25.44
-27.16
-29.15
-30.5
-30.4
-28.42
-24.62
-19.42
-13.37
-7.01
-0.7
5.32
10.73
15.11
17.93
18.68
17.21
13.82
9.21
4.27
-0.23
-3.88
-6.64
-8.79
-10.77
-12.93
-15.49
-18.46
-21.62
-24.55
-26.66
-27.34
-26.05
-22.49
-16.61
-8.63
0.97
11.39
21.63
30.52
37.05
40.53
40.84
38.32
33.66
27.58
20.72
13.53
6.36
-0.42
-6.58
-11.99
-16.84
-21.54
-26.6
-32.18
-37.97
-43.09
-46.36
-46.77
-43.81
-37.68
-29.27
-19.81
-10.52
-2.36
4.06
8.48
10.86
11.39
10.44
8.48
6.08
3.7
1.65
0.18
-0.49
-0.14
1.41
3.99
7.0
9.44
10.22
8.75
5.3
1.07
-2.23
-3.07
-0.73
4.42
11.18
18.03
23.74
27.72
29.93
30.66
30.2
28.62
25.87
21.88
16.75
10.82
4.63
-1.23
-6.28
-10.32
-13.48
-16.15
-18.84
-21.89
-25.36
-28.88
-31.84
-33.48
-33.17
-30.53
-25.5
-18.39
-9.89
-0.97
7.24
13.7
17.75
19.31
18.87
17.27
15.28
13.35
11.46
9.33
6.66
3.47
0.08
-3.04
-5.54
-7.46
-9.24
-11.49
-14.65
-18.7
-23.08
-26.9
-29.3
-29.67
-27.85
-24.02
-18.57
-11.98
-4.77
2.52
9.27
14.94
19.17
21.91
23.34
23.72
23.23
21.93
19.92
17.39
14.8
12.77
11.74
11.82
12.59
13.27
13.04
11.37
8.29
4.3
0.27
-2.9
-4.52
-4.24
-2.06
1.76
6.73
12.27
17.71
22.37
25.63
27.01
26.21
23.26
18.51
12.62
6.54
1.29
-2.25
-3.63
-2.94
-0.87
1.53
3.22
3.41
1.8
-1.41
-5.69
-10.33
-14.59
-17.81
-19.4
-19.03
-16.6
-12.46
-7.29
-1.99
2.55
5.69
7.07
6.69
4.75
1.72
-1.87
-5.49
-8.69
-11.19
-12.88
-13.66
-13.52
-12.45
-10.66
-8.68
-7.29
-7.26
-8.88
-11.68
-14.5
-15.87
-14.74
-10.88
-4.96
1.91
8.67
14.69
19.86
24.3
28.1
31.11
33.07
33.76
33.16
31.44
28.87
25.63
21.79
17.41
12.55
7.45
2.46
-1.99
-5.6
-8.31
-10.31
-11.9
-13.21
-13.98
-13.44
-10.6
-4.64
4.59
16.37
29.2
41.25
50.93
57.24
59.86
58.99
55.08
48.67
40.29
30.62
20.41
10.52
1.62
-5.83
-11.78
-16.5
-20.43
-24.01
-27.6
-31.44
-35.64
-40.14
-44.62
-48.49
-50.87
-50.82
-47.59
-40.96
-31.35
-19.81
-7.73
3.52
12.91
19.93
24.51
26.9
27.41
26.28
23.72
19.93
15.22
9.99
4.67
-0.33
-4.73
-8.42
-11.47
-13.97
-16.13
-18.16
-20.35
-22.94
-26.0
-29.3
-32.21
-33.9
-33.64
-31.14
-26.77
-21.41
-16.13
-11.78
-8.78
-7.23
-7.0
-7.99
-10.04
-12.79
-15.64
-17.87
-18.81
-18.12
-15.79
-12.07
-7.32
-1.94
3.57
8.56
12.17
13.66
12.64
9.29
4.47
-0.59
-4.6
-6.55
-6.04
-3.24
1.22
6.49
11.8
16.55
20.34
22.79
23.49
21.95
17.87
11.44
3.44
-4.81
-11.89
-16.75
-19.02
-19.13
-17.98
-16.54
-15.44
-14.78
-14.05
-12.37
-8.77
-2.51
6.68
18.43
31.79
45.4
57.81
67.82
74.64
77.99
78.0
75.09
69.8
62.74
54.55
45.82
37.02
28.39
19.93
11.44
2.69
-6.42
-15.77
-25.02
-33.79
-41.72
-48.65
-54.47
-59.07
-62.2
-63.5
-62.57
-59.16
-53.29
-45.31
-35.82
-25.64
-15.57
-6.39
1.31
7.15
11.06
13.23
14.14
14.29
14.01
13.38
12.25
10.4
7.78
4.62
1.35
-1.59
-3.98
-5.94
-7.86
-10.18
-13.12
-16.42
-19.41
-21.32
-21.53
-19.89
-16.66
-12.36
-7.46
-2.28
2.96
7.91
11.99
14.53
15.05
13.62
10.92
7.98
5.7
4.58
4.53
5.26
6.51
8.23
10.42
12.88
15.12
16.42
16.17
14.19
10.9
7.2
4.14
2.53
2.72
4.47
7.14
9.9
12.04
13.16
13.2
12.41
11.1
9.48
7.62
5.5
3.22
0.99
-0.84
-2.01
-2.46
-2.36
-1.99
-1.54
-1.02
-0.26
0.89
2.34
3.73
4.63
4.84
4.62
4.64
5.69
8.18
11.82
15.71
18.69
19.91
19.2
17.09
14.43
11.93
9.86
8.07
6.29
4.4
2.58
1.08
-0.08
-1.19
-2.84
-5.5
-9.24
-13.67
-18.05
-21.76
-24.45
-26.2
-27.23
-27.75
-27.85
-27.42
-26.27
-24.13
-20.61
-15.22
-7.57
2.34
13.93
25.98
36.99
45.7
51.39
54.08
54.3
52.65
49.51
45.05
39.3
32.37
24.51
16.08
7.39
-1.31
-9.82
-17.82
-24.85
-30.34
-33.82
-35.1
-34.42
-32.33
-29.56
-26.84
-24.67
-23.29
-22.65
-22.46
-22.35
-22.0
-21.19
-19.9
-18.28
-16.53
-14.84
-13.27
-11.59
-9.33
-5.99
-1.23
4.69
10.84
15.73
17.85
16.34
11.47
4.69
-1.92
-6.43
-7.75
-5.97
-2.01
2.88
7.6
11.44
14.02
15.12
14.57
12.38
8.76
4.18
-0.78
-5.65
-10.21
-14.42
-18.35
-22.06
-25.57
-28.88
-32.01
-34.82
-36.91
-37.54
-35.85
-31.08
-23.0
-11.98
1.08
14.98
28.55
40.76
50.82
58.11
62.25
63.22
61.39
57.5
52.4
46.67
40.53
33.84
26.35
18.08
9.4
0.96
-6.66
-13.25
-19.04
-24.62
-30.53
-37.07
-44.16
-51.37
-58.08
-63.6
-67.27
-68.49
-66.9
-62.36
-55.01
-45.19
-33.4
-20.27
-6.54
6.86
18.89
28.57
35.24
38.71
39.32
37.66
34.38
30.0
24.9
19.42
13.95
8.81
4.17
-0.05
-4.22
-8.73
-13.76
-19.11
-24.15
-28.08
-30.15
-29.94
-27.49
-23.28
-18.09
-12.78
-8.14
-4.71
-2.81
-2.59
-4.0
-6.86
-10.71
-14.81
-18.21
-19.85
-18.88
-14.93
-8.36
-0.24
7.83
14.21
17.58
17.41
13.92
8.08
1.27
-5.08
-9.76
-11.92
-11.18
-7.68
-2.0
4.87
11.75
17.45
21.1
22.3
21.13
18.0
13.45
7.96
1.88
-4.46
-10.67
-16.32
-21.0
-24.5
-26.93
-28.73
-30.42
-32.32
-34.33
-35.91
-36.18
-34.3
-29.71
-22.35
-12.65
-1.37
10.54
22.22
32.86
41.76
48.27
51.83
52.12
49.2
43.6
36.18
27.97
19.86
12.44
5.94
0.31
-4.6
-8.95
-12.89
-16.56
-20.15
-23.81
-27.59
-31.33
-34.54
-36.53
-36.57
-34.14
-29.29
-22.59
-15.06
-7.77
-1.45
3.66
7.77
11.3
14.6
17.8
20.81
23.39
25.28
26.26
26.14
24.79
22.14
18.24
13.22
7.37
1.07
-5.25
-11.12
-16.08
-19.72
-21.67
-21.69
-19.67
-15.72
-10.18
-3.71
2.85
8.59
12.75
14.88
14.84
12.78
8.97
3.75
-2.51
-9.31
-16.04
-21.95
-26.31
-28.53
-28.29
-25.66
-21.1
-15.47
-9.82
-5.22
-2.45
-1.64
-2.25
-3.15
-3.06
-1.0
3.3
9.36
16.11
22.37
27.25
30.34
31.74
31.77
30.79
28.96
26.32
22.85
18.61
13.87
9.01
4.44
0.42
-2.95
-5.83
-8.49
-11.21
-14.17
-17.27
-20.15
-22.26
-22.91
-21.54
-17.82
-11.7
-3.47
6.29
16.79
27.13
36.39
43.83
49.0
51.8
52.42
51.21
48.56
44.8
40.22
35.06
29.58
24.02
18.61
13.44
8.47
3.51
-1.63
-7.05
-12.59
-17.81
-22.1
-24.94
-26.05
-25.58
-24.03
-21.97
-19.83
-17.74
-15.61
-13.28
-10.76
-8.29
-6.25
-5.01
-4.7
-5.11
-5.76
-6.1
-5.71
-4.52
-2.81
-1.12
-0.06
-0.05
-1.2
-3.3
-5.94
-8.63
-11.0
-12.74
-13.6
-13.34
-11.77
-8.81
-4.63
0.35
5.45
9.94
13.2
14.9
15.0
13.69
11.25
7.97
4.06
-0.31
-4.95
-9.6
-14.02
-18.01
-21.54
-24.73
-27.78
-30.75
-33.47
-35.4
-35.77
-33.76
-28.9
-21.26
-11.55
-1.03
8.96
17.34
23.61
27.81
30.29
31.36
31.04
29.2
25.73
20.84
15.15
9.48
4.51
0.61
-2.34
-4.7
-6.92
-9.3
-11.95
-14.78
-17.45
-19.52
-20.45
-19.81
-17.42
-13.36
-8.03
-1.9
4.56
10.9
16.66
21.31
24.31
25.39
24.71
22.95
21.0
19.56
18.72
17.94
16.3
13.01
7.82
1.14
-6.26
-13.54
-20.17
-25.88
-30.54
-33.9
-35.47
-34.74
-31.43
-25.75
-18.4
-10.38
-2.66
4.08
9.46
13.36
15.71
16.38
15.33
12.66
8.82
4.59
0.86
-1.59
-2.43
-1.86
-0.57
0.57
0.82
-0.08
-1.84
-3.75
-5.03
-5.15
-4.01
-1.89
0.72
3.37
5.83
8.01
9.89
11.32
12.04
11.7
10.06
7.18
3.39
-0.71
-4.5
-7.5
-9.47
-10.51
-10.95
-11.22
-11.75
-12.82
-14.49
-16.5
-18.26
-18.94
-17.71
-13.95
-7.63
0.65
9.82
18.62
26.01
31.41
34.81
36.58
37.2
36.99
36.03
34.12
31.01
26.53
20.77
14.1
7.07
0.23
-5.99
-11.42
-16.11
-20.19
-23.81
-26.92
-29.31
-30.61
-30.45
-28.65
-25.27
-20.67
-15.45
-10.22
-5.54
-1.88
0.42
1.07
-0.04
-2.73
-6.34
-9.65
-11.18
-9.68
-4.75
2.95
11.73
19.61
24.98
27.16
26.53
24.1
21.05
18.26
16.24
15.23
15.38
16.76
19.32
22.66
26.03
28.45
29.04
27.25
23.01
16.8
9.44
1.89
-5.06
-10.98
-15.9
-20.17
-24.23
-28.31
-32.39
-36.21
-39.51
-42.15
-44.1
-45.26
-45.29
-43.51
-39.22
-31.95
-21.88
-9.85
2.85
14.78
24.74
32.0
36.36
38.01
37.42
35.1
31.5
26.96
21.69
15.94
10.07
4.56
-0.14
-3.79
-6.57
-9.02
-11.8
-15.27
-19.24
-22.97
-25.43
-25.75
-23.52
-19.0
-12.88
-6.06
0.68
6.86
12.25
16.79
20.45
23.13
24.66
24.9
23.84
21.67
18.79
15.59
12.39
9.24
5.99
2.42
-1.55
-5.83
-10.13
-14.08
-17.39
-19.83
-21.18
-21.2
-19.66
-16.51
-11.98
-6.67
-1.38
3.07
6.16
7.66
7.67
6.56
4.75
2.64
0.57
-1.25
-2.7
-3.73
-4.42
-4.9
-5.37
-6.0
-6.82
-7.63
-7.9
-6.98
-4.29
0.36
6.59
13.57
20.3
25.98
30.21
33.01
34.61
35.17
34.71
33.11
30.31
26.44
21.84
17.03
12.47
8.42
4.9
1.73
-1.33
-4.45
-7.65
-10.85
-13.93
-16.79
-19.28
-21.13
-21.97
-21.38
-19.1
-15.16
-9.91
-3.87
2.37
8.39
13.79
18.23
21.33
22.78
22.45
20.56
17.53
13.91
10.1
6.28
2.49
-1.34
-5.21
-9.09
-12.93
-16.6
-19.95
-22.67
-24.38
-24.68
-23.36
-20.52
-16.57
-12.15
-7.88
-4.23
-1.48
0.28
1.04
0.84
-0.28
-2.19
-4.62
-7.2
-9.49
-11.09
-11.81
-11.65
-10.84
-9.71
-8.52
-7.35
-6.09
-4.42
-2.05
1.13
4.96
9.01
12.69
15.48
17.13
17.64
17.29
16.42
15.23
13.7
11.63
8.79
5.16
0.92
-3.54
-7.82
-11.65
-15.01
-17.99
-20.75
-23.33
-25.66
-27.59
-28.95
-29.55
-29.13
-27.44
-24.3
-19.64
-13.69
-6.92
0.01
6.42
11.78
15.72
18.05
18.76
17.86
15.54
12.06
7.88
3.59
-0.23
-3.15
-5.09
-6.32
-7.41
-8.94
-11.2
-14.05
-16.88
-18.98
-19.72
-18.8
-16.3
-12.63
-8.34
-3.95
0.03
3.24
5.41
6.48
6.62
6.22
5.75
5.61
5.95
6.64
7.36
7.83
7.95
7.86
7.87
8.24
9.05
10.2
11.42
12.45
13.17
13.6
13.88
14.17
14.65
15.4
16.4
17.59
18.78
19.8
20.39
20.32
19.32
17.21
13.89
9.47
4.3
-1.1
-6.15
-10.45
-13.9
-16.74
-19.4
-22.21
-25.12
-27.63
-28.9
-28.07
-24.65
-18.71
-10.94
-2.41
5.71
12.58
17.76
21.22
23.14
23.67
22.86
20.75
17.49
13.54
9.55
6.14
3.67
2.04
0.8
-0.59
-2.48
-4.85
-7.37
-9.56
-11.03
-11.58
-11.16
-9.85
-7.76
-5.02
-1.82
1.59
4.85
7.62
9.55
10.45
10.18
8.76
6.33
3.16
-0.36
-3.74
-6.48
-8.17
-8.67
-8.09
-6.85
-5.5
-4.58
-4.41
-5.0
-6.07
-7.1
-7.52
-6.87
-4.98
-2.03
1.45
4.81
7.38
8.72
8.71
7.48
5.35
2.68
-0.26
-3.29
-6.26
-9.08
-11.63
-13.84
-15.78
-17.58
-19.42
-21.37
-23.31
-24.94
-25.81
-25.54
-23.89
-20.74
-16.08
-9.98
-2.66
5.42
13.51
20.69
26.06
29.07
29.62
28.01
24.75
20.4
15.37
10.05
4.8
0.01
-4.04
-7.23
-9.69
-11.71
-13.56
-15.34
-16.87
-17.82
-17.84
-16.74
-14.58
-11.59
-8.09
-4.36
-0.62
2.85
5.71
7.56
8.04
7.0
4.64
1.48
-1.85
-4.85
-7.27
-9.17
-10.75
-12.24
-13.71
-15.17
-16.53
-17.63
-18.22
-17.95
-16.44
-13.46
-9.05
-3.67
1.97
7.11
11.19
14.01
15.73
16.64
17.01
16.89
16.17
14.7
12.49
9.79
6.99
4.5
2.46
0.75
-0.99
-3.08
-5.63
-8.43
-11.05
-12.98
-13.82
-13.42
-11.86
-9.42
-6.49
-3.47
-0.73
1.52
3.21
4.44
5.3
5.77
5.53
4.12
1.16
-3.38
-9.03
-14.89
-19.99
-23.79
-26.33
-28.19
-30.12
-32.55
-35.42
-38.25
-40.34
-41.06
-39.92
-36.63
-31.16
-23.78
-15.08
-5.9
2.92
10.72
17.24
22.59
27.16
31.4
35.72
40.33
45.17
49.85
53.8
56.47
57.71
57.94
57.96
58.57
60.1
62.09
63.64
63.71
61.55
56.84
49.66
40.36
29.62
18.54
8.64
1.62
-1.2
0.52
5.83
12.68
18.71
22.1
22.36
20.25
17.37
15.22
14.58
15.14
15.82
15.36
12.9
8.26
1.92
-5.17
-11.98
-17.45
-20.75
-21.37
-19.37
-15.51
-11.07
-7.44
-5.57
-5.65
-7.11
-8.98
-10.39
-10.89
-10.55
-9.83
-9.28
-9.37
-10.33
-12.16
-14.62
-17.4
-20.18
-22.71
-24.7
-25.86
-25.79
-24.17
-20.91
-16.38
-11.44
-7.1
-4.24
-3.17
-3.62
-4.96
-6.52
-7.94
-9.25
-10.7
-12.56
-14.86
-17.36
-19.69
-21.46
-22.5
-22.88
-22.89
-22.81
-22.82
-22.8
-22.35
-21.01
-18.45
-14.73
-10.23
-5.52
-1.1
2.81
6.22
9.18
11.59
13.1
13.36
12.26
10.06
7.36
4.75
2.48
0.31
-2.22
-5.41
-9.03
-12.31
-14.2
-13.85
-11.03
-6.09
0.2
7.01
13.74
20.03
25.6
30.19
33.41
34.82
34.14
31.27
26.33
19.51
11.06
1.31
-9.25
-19.94
-29.98
-38.65
-45.51
-50.5
-53.94
-56.34
-58.12
-59.4
-59.86
-58.81
-55.47
-49.32
-40.38
-29.37
-17.48
-6.11
3.53
10.71
15.29
17.52
17.88
16.85
14.86
12.34
9.76
7.69
6.58
6.66
7.71
9.18
10.36
10.74
10.19
8.96
7.56
6.43
5.86
5.99
7.08
9.44
13.44
19.18
26.44
34.64
43.09
51.2
58.62
65.23
71.01
75.94
79.9
82.63
83.76
82.76
79.15
72.72
63.77
53.26
42.56
32.95
25.09
18.8
13.27
7.75
2.13
-2.85
-5.89
-5.88
-2.59
3.21
10.0
16.29
21.22
24.67
27.02
28.52
28.85
27.11
22.3
13.95
2.48
-10.99
-25.15
-39.15
-52.88
-66.69
-80.86
-95.05
-108.26
-119.2
-126.93
-131.27
-132.73
-132.12
-129.95
-126.12
-120.06
-111.19
-99.34
-84.98
-69.09
-52.78
-37.01
-22.39
-9.39
1.58
10.03
15.61
18.38
19.06
18.89
19.29
21.29
25.07
29.88
34.48
37.67
38.97
38.82
38.33
38.74
40.8
44.37
48.4
51.37
51.9
49.34
43.91
36.54
28.55
21.33
16.05
13.47
13.51
14.83
14.91
10.84
0.87
-13.97
-29.12
-37.68
-32.9
-11.25
25.69
71.58
117.61
155.57
180.21
189.95
186.14
171.61
149.56
122.96
94.55
66.9
42.18
21.86
6.4
-4.79
-12.94
-19.51
-25.58
-31.55
-37.09
-41.39
-43.56
-43.12
-40.26
-35.75
-30.64
-25.75
-21.47
-17.62
-13.71
-9.23
-3.97
1.74
7.16
11.41
13.98
15.06
15.62
17.01
20.33
25.82
32.61
39.18
44.07
46.56
46.97
46.39
46.0
46.38
47.31
47.97
47.47
45.31
41.52
36.58
30.96
24.95
18.53
11.55
3.85
-4.68
-13.98
-23.88
-33.9
-43.24
-50.8
-55.61
-57.15
-55.76
-52.47
-48.5
-44.66
-40.96
-36.89
-31.93
-26.13
-20.22
-15.28
-12.15
-10.96
-11.14
-11.91
-12.75
-13.7
-15.16
-17.48
-20.61
-24.05
-27.06
-29.04
-29.7
-29.03
-27.07
-23.8
-19.17
-13.48
-7.66
-3.31
-2.37
-6.38
-15.79
-29.68
-45.97
-61.98
-75.33
-84.48
-89.07
-89.72
-87.64
-84.14
-80.32
-76.86
-74.0
-71.68
-69.69
-67.77
-65.81
-63.86
-62.04
-60.44
-58.96
-57.22
-54.62
-50.5
-44.32
-35.88
-25.34
-13.22
-0.28
12.56
24.28
33.86
40.42
43.43
42.83
39.11
33.04
25.41
16.74
7.25
-2.93
-13.48
-23.79
-33.09
-40.78
-46.76
-51.39
-55.3
-58.96
-62.38
-65.18
-66.74
-66.53
-64.34
-60.34
-55.0
-48.95
-42.89
-37.47
-33.2
-30.34
-28.92
-28.72
-29.47
-30.93
-32.93
-35.37
-38.09
-40.79
-43.17
-44.98
-46.18
-46.88
-47.26
-47.41
-47.19
-46.19
-43.91
-40.03
-34.62
-28.25
-21.75
-15.94
-11.3
-7.91
-5.62
-4.27
-3.89
-4.58
-6.32
-8.73
-11.18
-13.08
-14.19
-14.82
-15.58
-16.89
-18.58
-19.77
-19.26
-16.08
-9.99
-1.55
8.17
18.06
27.47
36.26
44.71
53.15
61.58
69.51
76.02
80.05
80.81
78.25
73.11
66.76
60.69
55.92
52.7
50.51
48.52
46.07
43.15
40.38
38.63
38.54
40.11
42.76
45.5
47.5
48.3
47.95
46.76
45.04
42.85
40.03
36.34
31.61
25.99
19.91
13.94
8.65
4.31
0.81
-2.29
-5.53
-9.24
-13.28
-17.05
-19.79
-20.95
-20.53
-19.09
-17.54
-16.7
-16.93
-17.9
-18.75
-18.39
-16.03
-11.55
-5.67
0.34
5.14
7.88
8.54
7.79
6.66
6.13
6.91
9.42
13.95
20.5
28.68
37.55
45.57
51.15
53.11
51.15
45.98
38.9
31.31
24.24
18.2
13.31
9.51
6.68
4.64
3.14
1.86
0.54
-0.85
-2.04
-2.58
-2.02
-0.27
2.36
5.23
7.69
9.37
10.43
11.42
13.08
15.99
20.23
25.31
30.29
34.05
35.7
34.84
31.69
27.06
22.05
17.72
14.74
13.25
12.79
12.61
11.92
10.16
7.21
3.33
-0.98
-5.12
-8.55
-10.83
-11.51
-10.24
-6.82
-1.45
5.11
11.6
16.58
18.91
18.14
14.67
9.49
3.72
-1.79
-6.64
-10.84
-14.52
-17.76
-20.54
-22.74
-24.32
-25.3
-25.81
-25.92
-25.61
-24.7
-22.93
-20.0
-15.64
-9.8
-2.66
5.31
13.38
20.71
26.59
30.72
33.42
35.47
37.81
41.03
44.93
48.52
50.44
49.62
45.84
39.87
33.05
26.72
21.75
18.43
16.87
17.15
19.34
23.16
27.59
30.97
31.54
28.31
21.69
13.37
5.47
-0.7
-5.34
-10.01
-16.47
-25.51
-36.21
-46.33
-53.39
-55.91
-54.17
-49.93
-45.55
-42.76
-41.89
-41.8
-40.5
-36.21
-28.08
-16.59
-3.28
9.75
20.53
27.7
30.76
29.97
26.05
19.94
12.69
5.37
-0.96
-5.45
-7.64
-7.67
-6.3
-4.7
-4.06
-5.17
-7.93
-11.4
-14.08
-14.48
-11.68
-5.64
2.79
12.21
21.02
28.0
32.5
34.52
34.48
32.92
30.18
26.38
21.62
16.22
10.96
6.85
4.7
4.63
5.9
7.2
7.39
6.1
3.98
2.35
2.45
4.81
8.89
13.31
16.4
16.74
13.61
7.01
-2.47
-13.87
-26.13
-38.16
-49.0
-57.88
-64.32
-68.26
-70.02
-70.21
-69.64
-69.04
-68.88
-69.2
-69.48
-68.85
-66.26
-60.94
-52.65
-41.79
-29.43
-16.98
-5.82
3.07
9.25
12.87
14.5
14.83
14.48
13.79
12.88
11.74
10.35
8.75
6.99
5.04
2.72
-0.26
-4.1
-8.67
-13.38
-17.29
-19.29
-18.51
-14.56
-7.74
1.12
10.88
20.36
28.61
34.99
39.18
41.09
40.78
38.39
34.19
28.61
22.21
15.65
9.51
4.2
-0.12
-3.5
-6.09
-8.03
-9.28
-9.64
-8.8
-6.43
-2.43
2.95
9.24
15.79
22.05
27.6
32.17
35.46
36.99
36.18
32.52
25.96
17.13
7.3
-1.99
-9.45
-14.45
-17.21
-18.53
-19.35
-20.28
-21.32
-21.87
-21.09
-18.31
-13.38
-6.73
0.82
8.39
15.32
21.21
25.79
28.85
30.1
29.35
26.62
22.31
17.09
11.72
6.85
2.8
-0.44
-3.17
-5.86
-8.9
-12.4
-16.09
-19.22
-20.82
-20.06
-16.56
-10.66
-3.23
4.54
11.58
17.14
20.82
22.56
22.45
20.76
17.81
14.04
9.89
5.77
1.97
-1.39
-4.29
-6.87
-9.29
-11.71
-14.18
-16.49
-18.18
-18.6
-17.16
-13.58
-8.03
-1.13
6.23
13.12
18.78
22.72
24.7
24.73
22.97
19.76
15.56
10.88
6.28
2.2
-1.02
-3.29
-4.76
-5.8
-6.85
-8.22
-9.88
-11.43
-12.16
-11.37
-8.65
-4.09
1.75
8.06
13.97
18.82
22.21
24.0
24.17
22.84
20.21
16.61
12.47
8.33
4.65
1.74
-0.37
-1.92
-3.31
-4.9
-6.87
-9.03
-10.89
-11.77
-11.06
-8.48
-4.17
1.28
7.07
12.42
16.7
19.52
20.74
20.37
18.53
15.46
11.54
7.24
3.05
-0.66
-3.73
-6.23
-8.36
-10.35
-12.34
-14.27
-15.88
-16.73
-16.31
-14.29
-10.6
-5.55
0.27
6.16
11.46
15.69
18.58
19.97
19.85
18.3
15.57
12.08
8.34
4.82
1.85
-0.51
-2.36
-3.96
-5.53
-7.23
-9.06
-10.86
-12.31
-13.0
-12.51
-10.61
-7.34
-3.08
1.51
5.72
9.03
11.19
12.21
12.24
11.38
9.69
7.27
4.29
1.14
-1.72
-3.82
-4.92
-5.05
-4.59
-4.15
-4.32
-5.45
-7.39
-9.51
-10.85
-10.55
-8.24
-4.19
0.76
5.59
9.44
11.91
12.99
12.85
11.7
9.67
6.85
3.49
-0.09
-3.49
-6.33
-8.43
-9.74
-10.35
-10.5
-10.45
-10.45
-10.64
-10.9
-10.9
-10.11
-8.14
-4.85
-0.57
4.02
8.07
10.87
12.08
11.73
10.11
7.6
4.55
1.22
-2.16
-5.33
-8.01
-10.03
-11.4
-12.35
-13.22
-14.25
-15.4
-16.32
-16.49
-15.44
-13.01
-9.42
-5.12
-0.63
3.62
7.33
10.25
12.11
12.64
11.69
9.41
6.29
3.03
0.26
-1.7
-2.93
-3.84
-4.95
-6.56
-8.67
-10.95
-12.89
-14.02
-14.04
-12.79
-10.33
-6.85
-2.66
1.84
6.15
9.8
12.36
13.59
13.41
11.97
9.56
6.58
3.45
0.51
-2.01
-4.03
-5.61
-6.94
-8.22
-9.56
-10.91
-12.05
-12.61
-12.18
-10.45
-7.33
-3.02
1.94
6.84
10.93
13.65
14.76
14.39
12.89
10.66
8.0
5.08
2.06
-0.81
-3.22
-4.89
-5.75
-6.07
-6.37
-7.12
-8.49
-10.17
-11.48
-11.66
-10.24
-7.2
-2.98
1.75
6.28
10.03
12.71
14.16
14.38
13.44
11.48
8.71
5.45
2.06
-1.06
-3.66
-5.58
-6.85
-7.64
-8.19
-8.7
-9.21
-9.59
-9.54
-8.7
-6.83
-3.89
-0.07
4.17
8.27
11.69
13.99
14.95
14.54
12.92
10.42
7.52
4.68
2.26
0.45
-0.82
-1.75
-2.57
-3.45
-4.47
-5.63
-6.85
-7.97
-8.73
-8.8
-7.84
-5.71
-2.55
1.19
4.88
7.93
9.88
10.56
9.98
8.32
5.87
2.99
0.08
-2.49
-4.49
-5.83
-6.63
-7.09
-7.45
-7.9
-8.49
-9.18
-9.76
-9.94
-9.37
-7.78
-5.14
-1.65
2.25
6.04
9.27
11.58
12.79
12.88
11.9
10.02
7.53
4.77
2.1
-0.16
-1.88
-3.06
-3.85
-4.49
-5.24
-6.23
-7.41
-8.56
-9.28
-9.21
-8.05
-5.77
-2.61
1.02
4.58
7.58
9.68
10.75
10.77
9.85
8.15
5.83
3.11
0.27
-2.37
-4.5
-5.91
-6.67
-7.07
-7.5
-8.24
-9.23
-10.06
-10.17
-9.07
-6.64
-3.14
0.88
4.78
8.07
10.45
11.79
12.11
11.49
10.08
8.07
5.7
3.24
0.87
-1.24
-3.0
-4.36
-5.37
-6.16
-6.89
-7.67
-8.47
-8.99
-8.81
-7.5
-4.94
-1.37
2.68
6.56
9.73
11.93
13.12
13.37
12.72
11.12
8.6
5.39
1.93
-1.22
-3.59
-5.05
-5.8
-6.29
-6.91
-7.82
-8.87
-9.66
-9.73
-8.8
-6.82
-3.95
-0.52
3.09
6.52
9.42
11.46
12.43
12.23
10.93
8.81
6.25
3.64
1.25
-0.79
-2.49
-3.92
-5.2
-6.39
-7.55
-8.68
-9.67
-10.32
-10.31
-9.37
-7.33
-4.34
-0.75
2.9
6.1
8.52
9.99
10.47
9.98
8.56
6.31
3.45
0.38
-2.42
-4.53
-5.76
-6.24
-6.35
-6.54
-7.07
-7.89
-8.65
-8.84
-8.06
-6.16
-3.25
0.29
3.96
7.27
9.85
11.49
12.16
11.99
11.17
9.92
8.35
6.54
4.55
2.49
0.54
-1.09
-2.3
-3.13
-3.71
-4.2
-4.63
-4.85
-4.6
-3.64
-1.88
0.51
3.19
5.77
7.94
9.55
10.49
10.69
10.08
8.64
6.44
3.76
0.98
-1.51
-3.42
-4.7
-5.47
-6.02
-6.61
-7.43
-8.43
-9.35
-9.8
-9.37
-7.83
-5.23
-1.9
1.63
4.9
7.54
9.42
10.45
10.61
9.87
8.27
5.97
3.3
0.68
-1.55
-3.25
-4.53
-5.59
-6.65
-7.74
-8.71
-9.34
-9.4
-8.79
-7.46
-5.44
-2.8
0.28
3.53
6.55
8.92
10.32
10.61
9.87
8.32
6.28
4.07
1.95
0.09
-1.44
-2.68
-3.8
-4.94
-6.15
-7.34
-8.25
-8.54
-8.01
-6.62
-4.51
-1.93
0.84
3.56
6.05
8.13
9.62
10.33
10.17
9.15
7.44
5.32
3.13
1.16
-0.42
-1.65
-2.69
-3.74
-4.98
-6.38
-7.75
-8.75
-9.02
-8.26
-6.42
-3.61
-0.19
3.41
6.7
9.27
10.84
11.3
10.75
9.39
7.53
5.44
3.31
1.29
-0.57
-2.25
-3.74
-5.09
-6.39
-7.73
-9.1
-10.36
-11.18
-11.14
-9.86
-7.21
-3.42
0.98
5.31
8.9
11.33
12.48
12.41
11.37
9.63
7.43
4.99
2.53
0.27
-1.59
-2.9
-3.65
-3.98
-4.11
-4.29
-4.57
-4.82
-4.77
-4.08
-2.62
-0.44
2.22
5.0
7.61
9.84
11.52
12.51
12.71
12.05
10.6
8.58
6.28
4.02
1.99
0.23
-1.31
-2.76
-4.19
-5.57
-6.79
-7.64
-7.94
-7.52
-6.28
-4.21
-1.37
2.02
5.62
8.98
11.64
13.27
13.68
12.95
11.34
9.14
6.62
4.02
1.5
-0.79
-2.7
-4.14
-5.11
-5.74
-6.22
-6.69
-7.13
-7.35
-7.03
-5.89
-3.84
-1.09
1.96
4.84
7.13
8.68
9.51
9.77
9.56
8.94
7.88
6.33
4.37
2.14
-0.11
-2.11
-3.69
-4.79
-5.49
-5.94
-6.3
-6.63
-6.87
-6.84
-6.3
-5.06
-3.07
-0.49
2.34
4.99
7.06
8.32
8.72
8.41
7.63
6.59
5.39
4.02
2.46
0.74
-1.01
-2.64
-4.04
-5.19
-6.15
-6.98
-7.64
-7.98
-7.79
-6.92
-5.32
-3.14
-0.66
1.8
3.96
5.61
6.69
7.2
7.2
6.79
5.99
4.85
3.44
1.84
0.2
-1.34
-2.67
-3.8
-4.84
-5.91
-7.05
-8.13
-8.84
-8.8
-7.74
-5.61
-2.68
0.55
3.55
5.88
7.36
8.06
8.18
7.87
7.2
6.12
4.54
2.49
0.13
-2.27
-4.45
-6.23
-7.64
-8.78
-9.77
-10.61
-11.2
-11.33
-10.78
-9.45
-7.38
-4.72
-1.71
1.39
4.26
6.67
8.37
9.2
9.13
8.26
6.79
4.95
2.94
0.92
-0.96
-2.58
-3.82
-4.64
-5.13
-5.52
-6.01
-6.65
-7.28
-7.54
-7.07
-5.68
-3.48
-0.8
1.96
4.48
6.51
7.92
8.62
8.54
7.72
6.29
4.51
2.69
1.08
-0.18
-1.13
-1.92
-2.74
-3.77
-5.06
-6.46
-7.65
-8.24
-7.96
-6.79
-4.98
-2.97
-1.05
0.67
2.32
4.05
5.82
7.37
8.25
8.15
7.04
5.25
3.25
1.46
0.07
-1.02
-2.02
-3.11
-4.33
-5.6
-6.74
-7.58
-8.0
-7.97
-7.45
-6.49
-5.1
-3.3
-1.18
1.11
3.38
5.37
6.87
7.74
7.93
7.46
6.37
4.7
2.55
0.13
-2.23
-4.16
-5.4
-5.96
-6.06
-6.07
-6.27
-6.66
-7.01
-7.0
-6.41
-5.22
-3.63
-1.94
-0.36
0.99
2.1
2.95
3.51
3.74
3.6
3.04
2.05
0.65
-1.06
-2.88
-4.52
-5.73
-6.43
-6.75
-6.99
-7.42
-8.15
-8.97
-9.51
-9.32
-8.14
-5.95
-3.03
0.17
3.18
5.62
7.25
7.97
7.84
6.99
5.6
3.86
1.97
0.08
-1.64
-3.14
-4.4
-5.53
-6.62
-7.71
-8.75
-9.55
-9.87
-9.51
-8.35
-6.42
-3.87
-0.95
2.04
4.79
6.99
8.41
8.95
8.61
7.54
5.97
4.11
2.18
0.33
-1.33
-2.73
-3.89
-4.87
-5.81
-6.82
-7.89
-8.84
-9.38
-9.18
-8.01
-5.86
-2.95
0.33
3.51
6.17
8.02
8.93
8.93
8.17
6.83
5.07
3.06
0.97
-1.07
-2.87
-4.31
-5.35
-6.07
-6.62
-7.16
-7.72
-8.13
-8.11
-7.34
-5.63
-3.07
-0.0
3.07
5.68
7.58
8.74
9.3
9.47
9.3
8.69
7.53
5.76
3.57
1.28
-0.81
-2.54
-3.96
-5.28
-6.65
-8.04
-9.23
-9.83
-9.54
-8.25
-6.07
-3.29
-0.27
2.69
5.36
7.6
9.32
10.42
10.84
10.58
9.68
8.25
6.47
4.56
2.72
1.12
-0.11
-1.0
-1.64
-2.21
-2.83
-3.53
-4.17
-4.54
-4.35
-3.39
-1.61
0.87
3.76
6.64
9.1
10.77
11.46
11.16
10.03
8.32
6.28
4.1
1.9
-0.2
-2.08
-3.58
-4.66
-5.39
-6.0
-6.71
-7.65
-8.69
-9.46
-9.54
-8.64
-6.73
-4.07
-1.03
2.03
4.85
7.19
8.87
9.7
9.49
8.26
6.24
3.86
1.64
-0.1
-1.26
-2.02
-2.64
-3.36
-4.27
-5.3
-6.28
-6.97
-7.17
-6.7
-5.48
-3.5
-0.95
1.9
4.67
7.03
8.73
9.66
9.82
9.27
8.08
6.37
4.31
2.09
-0.08
-2.06
-3.76
-5.23
-6.55
-7.82
-9.04
-10.12
-10.89
-11.11
-10.57
-9.16
-6.91
-4.04
-0.91
2.06
4.45
6.02
6.65
6.4
5.39
3.8
1.78
-0.46
-2.65
-4.5
-5.79
-6.46
-6.67
-6.74
-6.98
-7.53
-8.3
-8.98
-9.19
-8.64
-7.23
-5.06
-2.38
0.54
3.43
6.05
8.2
9.7
10.45
10.44
9.72
8.46
6.84
5.06
3.28
1.62
0.14
-1.16
-2.32
-3.44
-4.58
-5.66
-6.47
-6.69
-6.02
-4.4
-2.04
0.64
3.2
5.33
7.01
8.32
9.33
10.0
10.12
9.5
8.1
6.14
4.01
2.14
0.76
-0.13
-0.75
-1.39
-2.26
-3.37
-4.58
-5.63
-6.25
-6.24
-5.5
-4.04
-1.93
0.72
3.71
6.8
9.62
11.8
13.03
13.15
12.2
10.4
8.12
5.76
3.65
1.97
0.74
-0.19
-1.05
-2.03
-3.23
-4.59
-5.92
-6.96
-7.52
-7.43
-6.67
-5.28
-3.3
-0.88
1.77
4.39
6.63
8.18
8.88
8.71
7.83
6.49
4.89
3.19
1.5
-0.1
-1.44
-2.43
-3.04
-3.41
-3.77
-4.36
-5.3
-6.46
-7.55
-8.21
-8.12
-7.13
-5.28
-2.8
-0.02
2.67
4.92
6.5
7.32
7.43
6.98
6.12
4.96
3.61
2.14
0.67
-0.7
-1.87
-2.83
-3.66
-4.5
-5.51
-6.7
-7.94
-8.94
-9.32
-8.79
-7.22
-4.79
-1.85
1.15
3.82
5.89
7.24
7.87
7.78
7.06
5.82
4.24
2.57
1.03
-0.2
-1.08
-1.68
-2.18
-2.84
-3.84
-5.26
-6.92
-8.46
-9.37
-9.25
-7.93
-5.55
-2.45
0.89
4.03
6.64
8.53
9.59
9.83
9.3
8.14
6.53
4.68
2.82
1.12
-0.29
-1.36
-2.17
-2.88
-3.7
-4.78
-6.12
-7.57
-8.82
-9.53
-9.42
-8.31
-6.24
-3.37
-0.06
3.25
6.08
8.1
9.14
9.27
8.69
7.62
6.2
4.53
2.68
0.79
-0.88
-2.1
-2.73
-2.9
-2.89
-3.06
-3.65
-4.65
-5.75
-6.49
-6.46
-5.43
-3.43
-0.72
2.28
5.16
7.59
9.4
10.54
11.04
10.98
10.39
9.34
7.86
6.07
4.16
2.34
0.84
-0.21
-0.87
-1.35
-1.97
-2.97
-4.37
-5.94
-7.29
-8.03
-7.93
-7.01
-5.47
-3.59
-1.6
0.34
2.12
3.66
4.84
5.54
5.7
5.33
4.52
3.44
2.25
1.14
0.18
-0.64
-1.45
-2.45
-3.74
-5.27
-6.79
-7.97
-8.48
-8.15
-7.01
-5.2
-2.95
-0.48
1.95
4.17
5.99
7.34
8.2
8.62
8.64
8.29
7.56
6.41
4.92
3.23
1.51
-0.04
-1.27
-2.16
-2.78
-3.28
-3.84
-4.52
-5.23
-5.74
-5.72
-4.91
-3.3
-1.12
1.27
3.44
5.09
6.02
6.15
5.47
4.11
2.23
0.14
-1.89
-3.62
-4.95
-5.9
-6.63
-7.27
-7.95
-8.72
-9.53
-10.24
-10.67
-10.61
-9.9
-8.53
-6.56
-4.19
-1.64
0.88
3.18
5.09
6.49
7.29
7.48
7.12
6.27
5.01
3.42
1.61
-0.28
-2.0
-3.32
-4.1
-4.4
-4.51
-4.78
-5.42
-6.36
-7.25
-7.56
-6.88
-5.11
-2.5
0.46
3.26
5.57
7.28
8.46
9.2
9.47
9.17
8.2
6.6
4.59
2.55
0.8
-0.48
-1.33
-1.93
-2.54
-3.28
-4.09
-4.79
-5.12
-4.93
-4.21
-3.09
-1.73
-0.25
1.37
3.18
5.16
7.19
9.0
10.26
10.78
10.49
9.5
8.02
6.28
4.46
2.73
1.22
0.01
-0.93
-1.72
-2.52
-3.45
-4.52
-5.57
-6.3
-6.47
-5.93
-4.75
-3.12
-1.31
0.5
2.17
3.68
5.0
6.04
6.65
6.68
6.02
4.76
3.12
1.42
-0.02
-1.08
-1.77
-2.26
-2.77
-3.43
-4.24
-5.13
-5.95
-6.54
-6.77
-6.53
-5.75
-4.44
-2.72
-0.79
1.12
2.77
3.98
4.67
4.83
4.45
3.53
2.14
0.42
-1.36
-2.88
-3.88
-4.25
-4.11
-3.75
-3.53
-3.71
-4.36
-5.33
-6.27
-6.8
-6.61
-5.52
-3.55
-0.91
2.07
4.98
7.42
9.12
9.94
9.92
9.2
7.96
6.35
4.5
2.51
0.53
-1.32
-2.9
-4.17
-5.24
-6.24
-7.25
-8.24
-9.0
-9.28
-8.89
-7.82
-6.19
-4.27
-2.31
-0.51
1.03
2.27
3.19
3.8
4.08
4.05
3.75
3.24
2.57
1.72
0.68
-0.58
-2.03
-3.61
-5.18
-6.61
-7.74
-8.47
-8.74
-8.59
-8.07
-7.2
-5.98
-4.34
-2.22
0.34
3.18
5.97
8.32
9.87
10.44
10.04
8.84
7.05
4.9
2.58
0.3
-1.74
-3.36
-4.52
-5.24
-5.67
-5.96
-6.2
-6.36
-6.27
-5.74
-4.69
-3.14
-1.29
0.66
2.49
4.09
5.39
6.29
6.71
6.54
5.74
4.38
2.66
0.87
-0.73
-2.0
-2.92
-3.59
-4.15
-4.71
-5.38
-6.21
-7.14
-8.05
-8.69
-8.79
-8.11
-6.59
-4.38
-1.81
0.74
2.92
4.57
5.61
6.09
6.05
5.55
4.61
3.31
1.79
0.29
-0.97
-1.82
-2.21
-2.25
-2.13
-2.11
-2.38
-3.02
-3.93
-4.89
-5.58
-5.71
-5.11
-3.7
-1.58
1.04
3.85
6.52
8.71
10.14
10.72
10.53
9.77
8.69
7.45
6.13
4.67
3.03
1.14
-0.96
-3.26
-5.62
-7.88
-9.67
-10.57
-10.17
-8.27
-5.08
-1.18
2.71
5.93
8.12
9.18
9.21
8.31
6.52
3.93
0.75
-2.58
-5.5
-7.46
-8.22
-7.89
-6.94
-5.91
-5.28
-5.33
-6.04
-7.23
-8.6
-9.79
-10.44
-10.18
-8.75
-6.09
-2.4
1.85
5.97
9.3
11.3
11.75
10.74
8.64
5.95
3.12
0.53
-1.67
-3.48
-5.03
-6.5
-8.01
-9.57
-11.1
-12.43
-13.31
-13.54
-12.98
-11.6
-9.46
-6.73
-3.54
-0.1
3.42
6.81
9.85
12.33
14.1
15.07
15.23
14.63
13.37
11.64
9.65
7.65
5.82
4.24
2.8
1.25
-0.66
-3.07
-5.83
-8.5
-10.44
-11.03
-9.99
-7.44
-3.96
-0.35
2.63
4.55
5.37
5.39
5.04
4.61
4.19
3.61
2.7
1.36
-0.28
-1.95
-3.33
-4.19
-4.58
-4.71
-4.95
-5.6
-6.76
-8.22
-9.6
-10.41
-10.27
-9.01
-6.68
-3.51
0.17
4.04
7.71
10.8
12.93
13.85
13.54
12.24
10.35
8.33
6.47
4.89
3.57
2.44
1.35
0.15
-1.36
-3.3
-5.61
-7.94
-9.64
-9.97
-8.41
-4.92
0.01
5.52
10.66
14.74
17.44
18.86
19.32
19.32
19.23
19.3
19.53
19.73
19.55
18.71
17.05
14.69
11.96
9.29
7.04
5.44
4.55
4.3
4.61
5.4
6.58
8.09
9.86
11.9
14.3
17.16
20.48
23.98
27.06
28.97
29.02
26.91
22.86
17.59
12.02
6.98
2.95
-0.02
-2.16
-3.85
-5.41
-6.99
-8.61
-10.14
-11.42
-12.27
-12.55
-12.15
-11.01
-9.2
-6.91
-4.53
-2.5
-1.31
-1.27
-2.49
-4.83
-7.97
-11.56
-15.27
-18.83
-22.07
-24.83
-27.03
-28.66
-29.97
-31.37
-33.4
-36.48
-40.59
-45.26
-49.55
-52.39
-52.89
-50.77
-46.36
-40.57
-34.58
-29.61
-26.56
-25.94
-27.8
-31.7
-36.98
-42.85
-48.67
-54.03
-58.71
-62.59
-65.56
-67.49
-68.3
-68.05
-66.91
-65.15
-62.94
-60.25
-56.81
-52.16
-45.91
-37.94
-28.47
-18.11
-7.64
2.27
11.19
19.02
25.91
31.94
37.05
41.05
43.81
45.5
46.61
47.79
49.64
52.38
55.84
59.59
63.16
66.18
68.48
70.0
70.88
71.41
72.08
73.45
75.93
79.59
84.08
88.76
92.96
96.25
98.55
99.98
100.74
100.88
100.26
98.63
95.8
91.75
86.64
80.76
74.4
67.83
61.23
54.72
48.39
42.3
36.46
30.79
25.15
19.38
13.48
7.68
2.4
-1.89
-4.89
-6.65
-7.61
-8.46
-9.89
-12.24
-15.44
-19.01
-22.3
-24.79
-26.22
-26.6
-26.07
-24.72
-22.51
-19.39
-15.51
-11.36
-7.72
-5.49
-5.33
-7.39
-11.24
-15.99
-20.63
-24.34
-26.61
-27.22
-26.19
-23.6
-19.55
-14.33
-8.42
-2.56
2.42
5.84
7.39
7.19
5.69
3.45
0.93
-1.63
-4.16
-6.65
-9.06
-11.35
-13.55
-15.82
-18.42
-21.63
-25.49
-29.83
-34.18
-37.98
-40.77
-42.29
-42.5
-41.48
-39.26
-35.73
-30.75
-24.18
-16.14
-7.11
2.12
10.5
17.06
21.16
22.8
22.66
21.88
21.7
23.0
26.09
30.54
35.48
39.89
42.98
44.34
44.05
42.49
40.15
37.43
34.47
31.11
27.06
22.1
16.4
10.68
6.07
3.78
4.65
8.81
15.59
23.7
31.66
38.12
42.28
43.97
43.55
41.76
39.38
37.0
34.8
32.52
29.52
25.07
18.6
9.85
-1.03
-13.55
-26.91
-40.02
-51.66
-60.64
-66.07
-67.6
-65.58
-60.89
-54.72
-48.2
-42.1
-36.8
-32.32
-28.5
-25.07
-21.83
-18.66
-15.71
-13.42
-12.55
-14.01
-18.58
-26.64
-37.99
-51.75
-66.56
-80.77
-92.78
-101.32
-105.65
-105.67
-101.79
-94.85
-85.88
-75.96
-66.14
-57.32
-50.24
-45.29
-42.53
-41.65
-42.16
-43.47
-45.04
-46.38
-47.13
-47.02
-45.92
-43.98
-41.58
-39.21
-37.39
-36.36
-36.06
-36.13
-35.98
-34.95
-32.4
-27.87
-21.18
-12.58
-2.81
6.93
15.31
21.14
23.77
23.18
19.96
15.02
9.35
3.76
-1.17
-5.1
-7.88
-9.57
-10.41
-10.8
-11.2
-12.06
-13.58
-15.63
-17.73
-19.16
-19.25
-17.55
-14.09
-9.32
-3.96
1.19
5.55
8.79
10.86
11.82
11.74
10.67
8.67
5.92
2.77
-0.32
-2.85
-4.48
-5.11
-4.98
-4.61
-4.56
-5.24
-6.65
-8.4
-9.78
-10.05
-8.67
-5.5
-0.79
4.88
10.77
16.22
20.75
24.09
26.12
26.8
26.13
24.18
21.07
17.13
12.85
8.84
5.64
3.59
2.67
2.5
2.51
2.09
0.85
-1.26
-3.86
-6.3
-7.78
-7.56
-5.25
-0.93
4.86
11.29
17.46
22.65
26.47
28.8
29.68
29.19
27.42
24.54
20.84
16.81
13.04
10.05
8.06
6.96
6.34
5.64
4.41
2.43
-0.16
-2.94
-5.31
-6.65
-6.49
-4.65
-1.25
3.32
8.46
13.54
17.92
21.09
22.71
22.64
20.95
17.91
13.99
9.7
5.59
2.1
-0.45
-1.95
-2.49
-2.36
-1.94
-1.67
-1.88
-2.71
-4.07
-5.6
-6.75
-6.93
-5.69
-2.83
1.49
6.8
12.39
17.42
21.13
22.99
22.74
20.5
16.64
11.73
6.46
1.49
-2.65
-5.6
-7.25
-7.74
-7.48
-7.03
-7.0
-7.83
-9.59
-11.95
-14.16
-15.32
-14.63
-11.74
-6.85
-0.67
5.8
11.63
16.24
19.4
21.17
21.7
21.05
19.27
16.46
12.95
9.24
5.91
3.37
1.69
0.59
-0.4
-1.73
-3.66
-6.16
-8.96
-11.59
-13.52
-14.22
-13.3
-10.57
-6.21
-0.71
5.21
10.77
15.36
18.64
20.49
20.97
20.2
18.36
15.71
12.62
9.56
7.02
5.34
4.59
4.59
4.87
4.88
4.11
2.26
-0.65
-4.18
-7.57
-9.92
-10.42
-8.68
-4.75
0.79
7.16
13.52
19.23
23.85
27.11
28.77
28.69
26.88
23.61
19.41
14.99
11.01
7.87
5.67
4.21
3.18
2.23
1.09
-0.46
-2.48
-4.85
-7.14
-8.72
-8.91
-7.22
-3.63
1.42
7.15
12.7
17.4
20.81
22.71
23.09
22.03
19.76
16.59
12.95
9.21
5.71
2.67
0.26
-1.41
-2.31
-2.52
-2.31
-2.05
-2.12
-2.74
-3.84
-5.08
-5.91
-5.82
-4.5
-1.99
1.39
5.13
8.7
11.77
14.11
15.61
16.14
15.56
13.83
11.09
7.69
4.13
0.93
-1.64
-3.46
-4.63
-5.27
-5.51
-5.45
-5.18
-4.87
-4.66
-4.65
-4.77
-4.81
-4.44
-3.32
-1.28
1.59
5.01
8.49
11.57
13.93
15.4
15.99
15.72
14.62
12.74
10.23
7.38
4.54
2.04
-0.03
-1.74
-3.37
-5.15
-7.23
-9.61
-12.12
-14.51
-16.44
-17.48
-17.22
-15.38
-11.95
-7.32
-2.14
2.81
6.89
9.74
11.25
11.52
10.76
9.15
6.97
4.53
2.18
0.2
-1.26
-2.28
-3.11
-4.03
-5.27
-6.97
-9.13
-11.64
-14.31
-16.75
-18.47
-18.92
-17.7
-14.73
-10.34
-5.19
-0.04
4.44
7.87
10.16
11.34
11.53
10.82
9.28
7.12
4.65
2.22
0.17
-1.36
-2.4
-3.15
-3.9
-4.89
-6.23
-7.84
-9.45
-10.64
-10.98
-10.15
-8.08
-4.95
-1.16
2.82
6.51
9.57
11.74
12.85
12.84
11.77
9.8
7.27
4.54
1.92
-0.34
-2.13
-3.46
-4.41
-5.11
-5.65
-6.07
-6.34
-6.27
-5.65
-4.27
-2.08
0.78
4.03
7.34
10.5
13.44
16.17
18.61
20.48
21.31
20.58
18.01
13.74
8.42
3.02
-1.49
-4.45
-5.76
-5.77
-5.15
-4.63
-4.72
-5.67
-7.42
-9.7
-12.1
-14.15
-15.29
-15.06
-13.2
-9.75
-5.11
-0.04
4.67
8.37
10.75
11.84
11.92
11.31
10.26
8.89
7.28
5.54
3.82
2.32
1.15
0.3
-0.36
-1.05
-1.99
-3.29
-4.84
-6.31
-7.23
-7.14
-5.75
-3.06
0.6
4.68
8.61
11.84
14.09
15.24
15.43
14.91
13.99
12.95
11.99
11.16
10.38
9.4
7.97
5.86
2.95
-0.71
-4.93
-9.41
-13.72
-17.38
-19.93
-20.97
-20.33
-18.04
-14.42
-10.01
-5.41
-1.12
2.46
5.15
6.85
7.51
7.12
5.7
3.4
0.56
-2.37
-4.96
-6.9
-8.13
-8.87
-9.4
-10.01
-10.85
-11.93
-13.15
-14.39
-15.45
-16.08
-15.94
-14.68
-12.08
-8.16
-3.28
1.99
6.96
11.07
13.98
15.56
15.83
14.91
12.9
9.95
6.32
2.35
-1.46
-4.66
-6.89
-8.06
-8.41
-8.39
-8.52
-9.17
-10.44
-12.05
-13.55
-14.42
-14.26
-12.89
-10.35
-6.83
-2.57
2.12
6.94
11.52
15.41
18.19
19.49
19.17
17.39
14.58
11.36
8.37
6.05
4.61
3.99
3.9
3.9
3.53
2.38
0.25
-2.78
-6.24
-9.37
-11.33
-11.43
-9.4
-5.54
-0.53
4.74
9.48
13.16
15.55
16.65
16.54
15.38
13.37
10.9
8.44
6.59
5.73
5.94
6.95
8.24
9.25
9.59
9.15
8.01
6.38
4.53
2.77
1.51
1.19
2.14
4.44
7.78
11.54
14.96
17.48
18.83
19.13
18.69
17.88
16.94
15.96
14.88
13.53
11.74
9.42
6.66
3.7
0.84
-1.69
-3.85
-5.82
-7.85
-10.06
-12.35
-14.4
-15.82
-16.3
-15.74
-14.19
-11.84
-8.81
-5.28
-1.45
2.32
5.63
8.05
9.34
9.47
8.64
7.14
5.28
3.32
1.37
-0.54
-2.51
-4.67
-7.13
-9.93
-12.98
-16.04
-18.79
-20.93
-22.21
-22.49
-21.71
-19.86
-16.96
-13.1
-8.5
-3.5
1.39
5.63
8.72
10.33
10.33
8.82
6.11
2.64
-1.12
-4.75
-7.95
-10.59
-12.7
-14.38
-15.78
-16.97
-17.89
-18.35
-17.97
-16.35
-13.23
-8.64
-3.1
2.52
7.21
10.25
11.43
11.23
10.53
10.24
10.86
12.32
14.01
15.1
14.89
13.1
9.89
5.83
1.66
-1.93
-4.51
-5.91
-6.27
-5.93
-5.3
-4.83
-4.84
-5.52
-6.76
-8.2
-9.31
-9.49
-8.39
-5.97
-2.61
1.07
4.35
6.63
7.62
7.28
5.85
3.69
1.15
-1.51
-4.1
-6.52
-8.59
-10.12
-10.89
-10.82
-10.09
-9.08
-8.26
-8.01
-8.48
-9.58
-11.03
-12.42
-13.32
-13.29
-12.02
-9.37
-5.48
-0.82
4.03
8.44
11.95
14.28
15.3
14.99
13.41
10.75
7.38
3.84
0.71
-1.58
-2.84
-3.22
-3.09
-2.88
-3.0
-3.76
-5.31
-7.61
-10.48
-13.5
-16.08
-17.55
-17.32
-15.16
-11.22
-6.06
-0.45
4.79
9.09
12.11
13.77
14.17
13.46
11.88
9.63
6.96
4.12
1.37
-1.05
-2.94
-4.2
-4.91
-5.34
-5.88
-6.92
-8.63
-10.85
-13.13
-14.86
-15.44
-14.55
-12.17
-8.62
-4.42
-0.11
3.82
7.12
9.62
11.29
12.08
11.91
10.78
8.79
6.26
3.69
1.54
0.09
-0.74
-1.28
-1.94
-2.99
-4.49
-6.26
-8.04
-9.55
-10.55
-10.8
-10.05
-8.15
-5.11
-1.21
3.01
6.94
10.05
12.1
13.09
13.18
12.56
11.37
9.7
7.66
5.48
3.42
1.76
0.63
0.0
-0.32
-0.58
-1.05
-1.88
-3.14
-4.84
-6.77
-8.65
-10.0
-10.39
-9.52
-7.35
-4.13
-0.3
3.66
7.32
10.31
12.34
13.22
12.9
11.55
9.57
7.41
5.48
3.98
2.89
2.03
1.21
0.34
-0.54
-1.35
-2.0
-2.52
-3.02
-3.62
-4.39
-5.24
-5.94
-6.15
-5.62
-4.2
-1.98
0.81
3.83
6.78
9.33
11.22
12.25
12.32
11.5
9.99
8.08
6.06
4.17
2.58
1.39
0.62
0.18
-0.12
-0.48
-1.05
-1.89
-2.97
-4.18
-5.37
-6.38
-7.01
-7.03
-6.25
-4.56
-2.09
0.83
3.79
6.38
8.37
9.66
10.26
10.2
9.51
8.24
6.5
4.5
2.47
0.63
-0.88
-2.03
-2.91
-3.62
-4.31
-5.08
-5.97
-6.99
-8.05
-9.05
-9.82
-10.15
-9.83
-8.72
-6.77
-4.06
-0.85
2.53
5.7
8.33
10.2
11.18
11.27
10.57
9.22
7.45
5.51
3.64
2.03
0.77
-0.15
-0.78
-1.21
-1.62
-2.16
-3.0
-4.2
-5.68
-7.17
-8.35
-8.9
-8.68
-7.67
-5.98
-3.76
-1.17
1.57
4.17
6.26
7.56
7.91
7.4
6.28
4.81
3.21
1.57
-0.06
-1.58
-2.83
-3.68
-4.09
-4.17
-4.19
-4.4
-4.95
-5.77
-6.66
-7.35
-7.64
-7.41
-6.62
-5.33
-3.59
-1.53
0.7
2.89
4.81
6.24
7.02
7.14
6.66
5.76
4.65
3.55
2.59
1.84
1.3
0.96
0.8
0.76
0.79
0.76
0.5
-0.14
-1.16
-2.39
-3.44
-3.87
-3.34
-1.73
0.73
3.63
6.51
8.99
10.94
12.38
13.45
14.26
14.85
15.11
14.92
14.2
12.98
11.43
9.85
8.55
7.88
8.09
9.31
11.47
14.12
16.51
17.64
16.67
13.23
7.72
1.19
-5.02
-9.7
-12.24
-12.71
-11.72
-10.09
-8.54
-7.58
-7.49
-8.42
-10.41
-13.37
-16.99
-20.81
-24.3
-26.96
-28.52
-28.97
-28.53
-27.59
-26.5
-25.5
-24.66
-23.96
-23.18
-22.1
-20.53
-18.32
-15.51
-12.28
-8.94
-5.76
-2.92
-0.48
1.55
3.16
4.25
4.69
4.45
3.65
2.56
1.45
0.52
-0.23
-0.89
-1.55
-2.18
-2.66
-2.86
-2.85
-2.77
-2.81
-3.0
-3.19
-3.04
-2.27
-0.79
1.29
3.69
6.13
8.38
10.31
11.75
12.52
12.43
11.42
9.63
7.42
5.23
3.44
2.21
1.51
1.11
0.77
0.27
-0.53
-1.65
-2.96
-4.21
-5.1
-5.33
-4.72
-3.31
-1.33
0.9
3.01
4.83
6.28
7.42
8.34
9.01
9.29
9.0
8.02
6.37
4.27
2.09
0.21
-1.14
-1.95
-2.41
-2.78
-3.31
-4.1
-5.07
-6.02
-6.74
-7.06
-6.91
-6.28
-5.13
-3.38
-0.99
1.97
5.16
8.09
10.17
10.96
10.35
8.61
6.23
3.75
1.63
0.07
-0.93
-1.47
-1.72
-1.87
-2.09
-2.48
-3.1
-3.9
-4.74
-5.43
-5.71
-5.32
-4.13
-2.18
0.29
2.88
5.2
6.97
8.16
8.91
9.42
9.76
9.81
9.34
8.17
6.35
4.18
2.08
0.43
-0.66
-1.29
-1.73
-2.21
-2.87
-3.68
-4.5
-5.12
-5.38
-5.11
-4.23
-2.74
-0.75
1.49
3.66
5.49
6.76
7.38
7.29
6.48
4.98
2.87
0.38
-2.14
-4.27
-5.69
-6.32
-6.35
-6.18
-6.25
-6.85
-8.03
-9.55
-11.02
-12.06
-12.38
-11.87
-10.58
-8.68
-6.48
-4.3
-2.47
-1.22
-0.58
-0.41
-0.41
-0.24
0.39
1.61
3.37
5.51
7.81
10.07
12.11
13.8
14.99
15.56
15.42
14.55
13.05
11.09
8.94
6.86
5.03
3.54
2.31
1.26
0.29
-0.61
-1.41
-2.05
-2.49
-2.77
-2.92
-2.98
-2.89
-2.5
-1.69
-0.43
1.22
3.06
4.87
6.43
7.54
8.07
7.86
6.87
5.12
2.81
0.27
-2.17
-4.22
-5.76
-6.78
-7.39
-7.7
-7.84
-7.9
-7.96
-8.04
-8.06
-7.91
-7.39
-6.34
-4.67
-2.47
0.02
2.52
4.71
6.36
7.38
7.73
7.45
6.62
5.35
3.77
2.09
0.51
-0.76
-1.64
-2.19
-2.58
-3.02
-3.65
-4.45
-5.25
-5.8
-5.87
-5.34
-4.24
-2.67
-0.82
1.17
3.17
5.07
6.79
8.21
9.19
9.58
9.23
8.09
6.26
4.0
1.67
-0.42
-2.1
-3.4
-4.48
-5.48
-6.47
-7.38
-8.16
-8.73
-9.07
-9.1
-8.7
-7.67
-5.9
-3.48
-0.64
2.26
4.93
7.14
8.77
9.69
9.77
8.92
7.22
4.92
2.47
0.26
-1.44
-2.59
-3.36
-3.94
-4.52
-5.15
-5.8
-6.39
-6.77
-6.83
-6.43
-5.5
-4.02
-2.09
0.14
2.48
4.79
6.93
8.81
10.26
11.07
11.04
10.06
8.24
5.86
3.34
1.1
-0.6
-1.67
-2.21
-2.45
-2.66
-3.07
-3.79
-4.85
-6.09
-7.24
-7.98
-8.06
-7.33
-5.78
-3.57
-0.9
1.94
4.67
7.02
8.76
9.73
9.89
9.29
8.13
6.63
5.06
3.62
2.45
1.59
1.01
0.67
0.47
0.28
-0.08
-0.76
-1.77
-3.01
-4.18
-4.97
-5.16
-4.72
-3.78
-2.54
-1.14
0.38
2.04
3.82
5.56
6.99
7.8
7.75
6.8
5.11
2.99
0.81
-1.08
-2.46
-3.26
-3.57
-3.57
-3.5
-3.62
-4.07
-4.88
-5.88
-6.79
-7.27
-7.1
-6.18
-4.59
-2.55
-0.29
1.94
3.94
5.53
6.62
7.15
7.17
6.72
5.81
4.49
2.85
1.1
-0.49
-1.63
-2.18
-2.2
-1.94
-1.75
-1.88
-2.42
-3.25
-4.16
-4.94
-5.38
-5.32
-4.63
-3.26
-1.27
1.17
3.76
6.18
8.15
9.43
9.88
9.43
8.1
6.07
3.67
1.32
-0.6
-1.88
-2.55
-2.89
-3.24
-3.89
-4.92
-6.25
-7.7
-9.04
-10.04
-10.44
-10.03
-8.64
-6.31
-3.25
0.15
3.43
6.22
8.31
9.67
10.36
10.45
9.96
8.89
7.25
5.19
2.88
0.6
-1.4
-2.93
-3.93
-4.48
-4.8
-5.14
-5.69
-6.48
-7.36
-8.06
-8.31
-7.94
-6.89
-5.24
-3.14
-0.71
1.86
4.35
6.46
7.89
8.47
8.18
7.18
5.77
4.24
2.8
1.56
0.57
-0.16
-0.66
-0.95
-1.13
-1.34
-1.71
-2.34
-3.22
-4.25
-5.25
-5.96
-6.15
-5.61
-4.27
-2.25
0.18
2.67
4.91
6.72
8.04
8.87
9.21
9.02
8.24
6.92
5.24
3.44
1.78
0.41
-0.63
-1.39
-1.95
-2.39
-2.77
-3.18
-3.7
-4.39
-5.21
-6.04
-6.66
-6.79
-6.26
-4.94
-2.88
-0.25
2.69
5.62
8.2
10.14
11.25
11.45
10.78
9.41
7.54
5.39
3.19
1.13
-0.6
-1.84
-2.54
-2.75
-2.64
-2.52
-2.67
-3.26
-4.28
-5.52
-6.68
-7.42
-7.47
-6.73
-5.22
-3.14
-0.77
1.59
3.67
5.33
6.53
7.28
7.59
7.45
6.8
5.65
4.12
2.48
1.01
-0.08
-0.77
-1.2
-1.59
-2.14
-2.91
-3.82
-4.77
-5.66
-6.43
-7.03
-7.29
-7.03
-6.06
-4.32
-1.97
0.68
3.22
5.32
6.8
7.65
7.91
7.61
6.74
5.35
3.52
1.48
-0.49
-2.14
-3.29
-3.91
-4.08
-3.96
-3.75
-3.71
-4.03
-4.79
-5.88
-7.01
-7.75
-7.67
-6.57
-4.5
-1.79
1.08
3.68
5.69
7.02
7.72
7.84
7.37
6.27
4.5
2.23
-0.22
-2.41
-3.99
-4.84
-5.13
-5.21
-5.41
-5.97
-6.88
-8.0
-9.06
-9.76
-9.78
-8.91
-7.06
-4.39
-1.29
1.77
4.34
6.17
7.27
7.78
7.91
7.73
7.24
6.38
5.09
3.44
1.59
-0.22
-1.81
-3.01
-3.8
-4.25
-4.51
-4.77
-5.2
-5.88
-6.75
-7.59
-8.05
-7.8
-6.65
-4.61
-1.94
1.02
3.94
6.57
8.74
10.3
11.09
10.98
9.98
8.27
6.2
4.12
2.28
0.75
-0.49
-1.48
-2.19
-2.56
-2.63
-2.58
-2.72
-3.38
-4.64
-6.29
-7.86
-8.8
-8.73
-7.52
-5.32
-2.47
0.65
3.66
6.24
8.13
9.13
9.16
8.3
6.76
4.9
3.03
1.39
0.08
-0.89
-1.61
-2.17
-2.67
-3.17
-3.75
-4.4
-5.14
-5.89
-6.55
-6.98
-6.97
-6.32
-4.95
-2.92
-0.45
2.12
4.48
6.44
7.9
8.86
9.27
9.04
8.11
6.51
4.51
2.52
0.94
-0.05
-0.49
-0.68
-0.96
-1.58
-2.57
-3.81
-5.09
-6.2
-7.01
-7.42
-7.34
-6.69
-5.4
-3.46
-1.01
1.74
4.44
6.76
8.42
9.26
9.24
8.43
6.96
5.0
2.77
0.51
-1.52
-3.11
-4.15
-4.69
-4.87
-4.95
-5.15
-5.6
-6.34
-7.31
-8.33
-9.17
-9.55
-9.19
-7.93
-5.78
-2.95
0.17
3.19
5.76
7.63
8.7
8.88
8.15
6.6
4.46
2.12
-0.02
-1.67
-2.8
-3.58
-4.29
-5.14
-6.13
-7.17
-8.1
-8.8
-9.24
-9.41
-9.2
-8.4
-6.83
-4.39
-1.24
2.31
5.75
8.65
10.65
11.61
11.56
10.64
9.1
7.17
5.05
2.87
0.79
-1.06
-2.54
-3.51
-3.95
-3.95
-3.77
-3.74
-4.08
-4.88
-5.9
-6.76
-7.03
-6.38
-4.77
-2.38
0.41
3.2
5.68
7.68
9.14
10.06
10.42
10.16
9.22
7.64
5.59
3.34
1.21
-0.53
-1.75
-2.48
-2.83
-2.99
-3.12
-3.36
-3.85
-4.62
-5.63
-6.67
-7.36
-7.29
-6.17
-3.9
-0.67
3.1
6.87
10.16
12.56
13.81
13.81
12.64
10.52
7.85
5.06
2.56
0.61
-0.71
-1.47
-1.82
-1.96
-2.07
-2.32
-2.81
-3.58
-4.57
-5.6
-6.42
-6.77
-6.44
-5.36
-3.56
-1.23
1.38
3.96
6.26
8.07
9.32
10.0
10.16
9.84
9.02
7.7
5.96
3.99
2.07
0.5
-0.56
-1.14
-1.4
-1.65
-2.09
-2.81
-3.74
-4.74
-5.69
-6.45
-6.94
-6.99
-6.45
-5.21
-3.26
-0.75
2.01
4.73
7.15
9.09
10.42
11.07
10.92
9.89
7.97
5.32
2.27
-0.75
-3.29
-5.04
-5.88
-5.99
-5.72
-5.46
-5.52
-5.98
-6.74
-7.57
-8.22
-8.52
-8.35
-7.64
-6.38
-4.58
-2.37
0.05
2.42
4.52
6.19
7.31
7.81
7.66
6.83
5.4
3.54
1.48
-0.47
-2.06
-3.1
-3.58
-3.64
-3.56
-3.66
-4.17
-5.12
-6.26
-7.2
-7.53
-7.03
-5.71
-3.83
-1.68
0.51
2.62
4.64
6.55
8.21
9.38
9.81
9.3
7.84
5.65
3.08
0.56
-1.56
-3.07
-3.96
-4.35
-4.49
-4.6
-4.89
-5.44
-6.22
-7.1
-7.84
-8.18
-7.88
-6.77
-4.78
-2.02
1.29
4.76
7.95
10.43
11.86
12.04
11.01
9.0
6.41
3.67
1.21
-0.72
-2.04
-2.81
-3.21
-3.39
-3.55
-3.79
-4.16
-4.7
-5.34
-5.95
-6.33
-6.22
-5.43
-3.84
-1.49
1.39
4.45
7.3
9.56
11.01
11.59
11.34
10.41
8.88
6.87
4.5
1.93
-0.54
-2.6
-4.04
-4.76
-4.9
-4.76
-4.66
-4.84
-5.36
-6.14
-6.95
-7.54
-7.7
-7.28
-6.21
-4.54
-2.36
0.15
2.79
5.33
7.5
9.02
9.68
9.39
8.26
6.55
4.63
2.81
1.18
-0.27
-1.67
-3.04
-4.29
-5.22
-5.76
-5.98
-6.15
-6.47
-7.02
-7.6
-7.84
-7.45
-6.29
-4.46
-2.18
0.32
2.88
5.41
7.78
9.8
11.19
11.73
11.25
9.76
7.47
4.75
2.06
-0.13
-1.54
-2.08
-1.93
-1.47
-1.1
-1.13
-1.69
-2.72
-4.0
-5.27
-6.27
-6.75
-6.55
-5.62
-4.04
-2.01
0.17
2.23
3.98
5.32
6.21
6.61
6.51
5.85
4.63
2.94
0.92
-1.23
-3.29
-5.05
-6.37
-7.15
-7.44
-7.4
-7.3
-7.39
-7.84
-8.64
-9.49
-10.01
-9.74
-8.39
-5.95
-2.68
0.91
4.26
6.9
8.61
9.43
9.57
9.24
8.53
7.41
5.82
3.83
1.63
-0.47
-2.16
-3.32
-3.95
-4.17
-4.13
-3.96
-3.81
-3.82
-4.1
-4.7
-5.47
-6.05
-6.02
-5.03
-2.98
-0.06
3.3
6.59
9.43
11.55
12.86
13.33
12.92
11.63
9.48
6.6
3.34
0.25
-2.05
-2.99
-2.37
-0.37
2.46
5.37
7.77
9.42
10.47
11.33
12.49
14.29
16.9
20.27
24.2
28.36
32.28
35.42
37.3
37.65
36.52
34.28
31.46
28.59
26.09
24.28
23.35
23.43
24.52
26.39
28.55
30.39
31.25
30.72
28.62
25.13
20.75
16.15
12.05
9.02
7.24
6.46
5.96
4.87
2.44
-1.67
-7.27
-13.86
-20.81
-27.61
-33.97
-39.78
-45.02
-49.68
-53.81
-57.55
-61.12
-64.78
-68.76
-73.12
-77.56
-81.57
-84.48
-85.84
-85.58
-84.1
-82.03
-79.95
-78.09
-76.24
-73.94
-70.7
-66.29
-60.8
-54.57
-48.16
-42.22
-37.38
-34.12
-32.57
-32.37
-32.64
-32.32
-30.59
-27.11
-22.2
-16.52
-10.74
-5.31
-0.36
4.26
8.82
13.64
18.91
24.55
30.18
35.05
38.37
39.52
38.49
35.88
32.74
30.07
28.46
27.81
27.56
27.0
25.61
23.22
20.06
16.54
13.15
10.27
8.16
6.89
6.43
6.75
7.76
9.26
10.88
12.16
12.65
12.09
10.63
8.72
7.02
6.11
6.21
7.14
8.41
9.47
9.85
9.32
7.91
5.89
3.67
1.72
0.42
-0.06
0.21
0.95
1.82
2.64
3.42
4.29
5.43
6.88
8.62
10.54
12.64
15.12
18.23
22.28
27.4
33.48
40.15
46.91
53.27
59.0
64.13
68.8
72.99
76.35
78.27
78.26
76.3
73.08
69.63
66.83
64.98
63.66
62.18
60.02
57.14
53.8
50.14
45.89
40.44
33.23
24.31
14.44
4.93
-2.95
-8.41
-11.32
-12.17
-11.72
-10.83
-10.17
-10.26
-11.32
-13.31
-15.87
-18.49
-20.64
-21.96
-22.37
-22.04
-21.18
-19.88
-18.03
-15.38
-11.68
-6.97
-1.58
3.87
8.76
12.69
15.67
17.92
19.76
21.3
22.38
22.62
21.73
19.61
16.6
13.29
10.31
8.01
6.29
4.67
2.54
-0.48
-4.43
-8.94
-13.54
-17.84
-21.72
-25.23
-28.41
-31.14
-33.17
-34.31
-34.59
-34.33
-33.97
-33.82
-33.85
-33.77
-33.15
-31.67
-29.11
-25.43
-20.58
-14.59
-7.55
0.27
8.33
15.88
22.11
26.3
28.08
27.44
24.85
21.09
17.1
13.64
11.13
9.54
8.6
8.03
7.72
7.78
8.37
9.63
11.66
14.62
18.74
24.23
31.0
38.34
44.9
48.97
49.18
45.05
37.24
27.17
16.43
6.06
-3.73
-13.38
-23.43
-34.03
-44.7
-54.52
-62.49
-68.01
-70.99
-71.96
-72.0
-72.49
-74.82
-79.91
-87.89
-98.03
-108.95
-119.17
-127.61
-133.95
-138.51
-141.88
-144.33
-145.63
-145.1
-142.03
-136.08
-127.37
-116.29
-103.0
-87.29
-68.7
-47.1
-23.36
0.46
21.67
37.84
47.92
52.68
54.28
55.31
57.78
62.49
69.19
77.08
85.31
93.27
100.42
105.95
108.71
107.52
101.62
91.13
77.02
60.84
43.95
27.04
10.02
-7.5
-25.43
-42.54
-56.37
-63.83
-62.32
-50.68
-29.7
-1.82
29.65
61.42
90.63
114.97
132.49
141.65
141.65
132.98
117.66
99.15
81.59
68.57
62.03
61.7
65.47
70.54
74.81
77.73
80.01
82.65
85.59
87.15
84.58
75.38
58.81
36.37
11.2
-13.37
-35.01
-53.0
-67.71
-79.91
-90.13
-98.52
-105.19
-110.41
-114.77
-118.88
-123.18
-127.64
-131.82
-135.01
-136.53
-135.94
-133.24
-128.9
-123.86
-119.33
-116.43
-115.87
-117.63
-120.94
-124.47
-126.73
-126.5
-123.08
-116.45
-107.16
-96.09
-84.18
-72.24
-60.76
-49.79
-38.98
-27.69
-15.27
-1.3
14.1
30.21
45.82
59.53
70.18
77.13
80.49
81.05
80.01
78.57
77.54
77.07
76.65
75.36
72.33
67.13
60.07
52.14
44.63
38.63
34.6
32.32
31.06
30.1
29.03
27.89
26.99
26.58
26.68
27.1
27.54
27.77
27.74
27.44
27.0
26.59
26.43
26.83
28.05
30.22
33.26
36.91
40.89
44.91
48.79
52.34
55.26
57.13
57.45
55.77
51.88
45.84
37.97
28.77
18.84
8.78
-0.66
-8.7
-14.52
-17.46
-17.26
-14.27
-9.35
-3.6
2.09
7.31
12.07
16.54
20.58
23.69
25.15
24.39
21.37
16.44
10.07
2.44
-6.46
-16.54
-27.23
-37.37
-45.55
-50.67
-52.45
-51.43
-48.53
-44.53
-39.66
-33.85
-27.12
-20.0
-13.6
-9.09
-7.05
-7.17
-8.33
-9.17
-8.73
-6.8
-3.79
-0.3
3.35
7.26
11.76
17.1
23.16
29.44
35.26
40.02
43.23
44.53
43.57
40.0
33.63
24.63
13.66
1.83
-9.52
-19.27
-26.87
-32.54
-37.14
-41.64
-46.61
-51.74
-55.83
-57.25
-54.72
-47.95
-37.87
-26.33
-15.36
-6.5
-0.35
3.41
5.76
7.86
10.7
14.78
20.06
25.98
31.68
36.16
38.54
38.25
35.09
29.36
21.77
13.51
5.97
0.53
-1.86
-1.02
2.36
6.94
11.32
14.56
16.55
17.95
19.67
22.35
25.9
29.54
32.12
32.7
30.94
27.22
22.42
17.48
13.03
9.17
5.58
1.69
-2.91
-8.31
-14.16
-19.75
-24.24
-26.9
-27.48
-26.21
-23.81
-21.18
-19.15
-18.32
-19.02
-21.41
-25.52
-31.2
-38.02
-45.28
-52.08
-57.6
-61.27
-62.84
-62.05
-58.49
-51.52
-40.66
-26.18
-9.52
6.83
20.15
28.47
31.4
30.26
27.38
25.1
24.95
27.28
31.53
36.83
42.42
47.81
52.6
56.24
57.98
57.09
53.18
46.44
37.73
28.3
19.35
11.68
5.53
0.53
-4.05
-8.96
-14.76
-21.65
-29.33
-37.1
-43.96
-48.86
-50.98
-49.9
-45.76
-39.18
-31.07
-22.43
-14.17
-7.04
-1.54
1.99
3.48
3.13
1.42
-0.95
-3.27
-4.98
-5.86
-6.0
-5.78
-5.58
-5.8
-6.68
-8.3
-10.57
-13.16
-15.56
-17.14
-17.3
-15.67
-12.31
-7.65
-2.38
2.79
7.26
10.61
12.59
13.01
11.84
9.19
5.48
1.35
-2.46
-5.33
-6.96
-7.42
-7.12
-6.56
-6.23
-6.44
-7.27
-8.52
-9.79
-10.51
-10.15
-8.4
-5.23
-0.93
4.06
9.22
14.1
18.29
21.41
23.12
23.14
21.4
18.09
13.66
8.68
3.7
-0.83
-4.65
-7.69
-10.0
-11.68
-12.9
-13.86
-14.68
-15.42
-15.99
-16.2
-15.74
-14.31
-11.74
-7.98
-3.22
2.19
7.74
12.85
16.99
19.74
20.84
20.2
17.97
14.49
10.27
5.88
1.87
-1.38
-3.67
-5.05
-5.76
-6.15
-6.55
-7.17
-8.03
-8.96
-9.57
-9.46
-8.3
-5.94
-2.46
1.82
6.52
11.17
15.38
18.78
21.06
22.05
21.68
20.03
17.33
13.92
10.16
6.41
2.93
-0.04
-2.34
-3.93
-4.94
-5.61
-6.28
-7.23
-8.51
-9.91
-10.99
-11.21
-10.13
-7.62
-3.85
0.77
5.7
10.41
14.45
17.38
18.86
18.65
16.75
13.45
9.33
5.15
1.6
-0.91
-2.34
-3.0
-3.32
-3.71
-4.43
-5.6
-7.19
-9.06
-10.97
-12.5
-13.2
-12.64
-10.61
-7.18
-2.73
2.19
6.98
11.12
14.2
15.9
16.03
14.51
11.51
7.42
2.82
-1.66
-5.46
-8.26
-10.02
-10.92
-11.28
-11.46
-11.78
-12.39
-13.26
-14.14
-14.63
-14.26
-12.61
-9.52
-5.19
-0.11
5.03
9.62
13.23
15.7
17.01
17.17
16.16
13.97
10.74
6.82
2.79
-0.76
-3.33
-4.77
-5.26
-5.24
-5.25
-5.77
-7.0
-8.83
-10.8
-12.29
-12.66
-11.53
-8.82
-4.81
0.01
5.07
9.82
13.84
16.74
18.25
18.2
16.58
13.62
9.76
5.58
1.64
-1.64
-4.01
-5.48
-6.21
-6.49
-6.66
-6.99
-7.6
-8.43
-9.22
-9.63
-9.31
-8.01
-5.65
-2.31
1.78
6.23
10.54
14.19
16.65
17.52
16.68
14.3
10.81
6.8
2.84
-0.63
-3.32
-5.16
-6.22
-6.66
-6.73
-6.68
-6.69
-6.81
-6.88
-6.64
-5.8
-4.21
-1.9
0.94
4.17
7.73
11.65
15.96
20.44
24.51
27.33
28.21
26.91
23.92
20.3
17.27
15.86
16.41
18.55
21.23
23.35
24.08
23.16
21.07
18.8
17.86
19.73
25.27
34.13
44.54
53.59
58.05
55.42
43.84
23.89
-1.36
-27.2
-49.0
-63.78
-71.04
-72.03
-68.66
-62.64
-54.99
-46.52
-38.15
-30.96
-25.92
-23.54
-23.62
-25.21
-27.08
-27.81
-26.31
-22.17
-15.77
-8.15
-0.72
5.22
8.89
10.12
9.45
7.68
5.56
3.51
1.67
0.09
-1.1
-1.62
-1.23
0.12
2.15
4.34
6.11
7.03
7.05
6.42
5.71
5.47
6.13
7.81
10.23
12.8
14.81
15.79
15.83
15.46
15.4
15.99
16.93
17.44
16.72
14.56
11.55
8.81
7.41
7.85
9.83
12.49
14.95
16.75
17.98
19.01
20.23
21.79
23.55
25.16
26.26
26.36
25.19
22.59
18.59
13.35
7.05
-0.05
-7.64
-15.25
-22.21
-27.73
-31.08
-31.93
-30.41
-27.21
-23.34
-19.8
-17.29
-15.99
-15.64
-15.56
-14.99
