value
2097152.0
2097152.0
2097152.0
2156701.0
2156690.0
2156625.0
2156724.0
2156668.0
2156763.0
2156711.0
2156632.0
2156733.0
2131648.0
2131688.0
2131699.0
2131694.0
2131710.0
2099488.0
2099399.0
2099495.0
2099415.0
2099494.0
2103645.0
2103824.0
2103864.0
2103758.0
2103736.0
2103733.0
2103864.0
2103680.0
2103671.0
2103736.0
2103910.0
2103773.0
2103729.0
2103884.0
2103759.0
2103751.0
2103681.0
2103691.0
2103861.0
2103660.0
2103807.0
2103874.0
2103939.0
2103728.0
2103741.0
2103841.0
2103797.0
2103746.0
2103682.0
2103926.0
2103696.0
2103746.0
2103736.0
2103798.0
2103874.0
2103716.0
2103906.0
2103807.0
2103727.0
2103747.0
2103881.0
2103766.0
2103719.0
2103761.0
2103713.0
2103751.0
2103697.0
2103741.0
2103714.0
2103742.0
2103753.0
2103923.0
2103670.0
2103722.0
2103868.0
2103901.0
2103707.0
2103726.0
2103738.0
2103803.0
2103843.0
2103688.0
2103865.0
2103718.0
2103751.0
2103734.0
2103747.0
2103827.0
2103758.0
2103710.0
2103743.0
2103801.0
2103772.0
2103735.0
2103637.0
2103920.0
2103726.0
2103708.0
2103771.0
2103717.0
2103717.0
2103890.0
2103753.0
2103778.0
2103748.0
2103826.0
2103911.0
2103701.0
2103762.0
2103663.0
2103836.0
2103772.0
2103730.0
2103757.0
2103712.0
2103676.0
2103748.0
2103757.0
2103703.0
2103600.0
2103749.0
2103776.0
2103779.0
2103748.0
2103664.0
2103740.0
2103649.0
2103861.0
2103744.0
2103710.0
2103800.0
2103696.0
2103659.0
2103727.0
2103666.0
2103665.0
2103703.0
2103798.0
2103657.0
2103750.0
2103700.0
2103634.0
2103701.0
2103879.0
2103688.0
2103722.0
2103857.0
2103657.0
2103661.0
2103717.0
2103908.0
2103668.0
2103713.0
2103653.0
2103876.0
2103711.0
2103828.0
2103714.0
2103696.0
2103898.0
2103696.0
2103823.0
2103640.0
2103716.0
2103601.0
2103675.0
2103772.0
2103814.0
2103781.0
2103641.0
2103667.0
2103856.0
2103659.0
2103688.0
2103721.0
2103665.0
2103673.0
2103660.0
2103696.0
2103654.0
2103689.0
2103569.0
2103707.0
2103872.0
2103679.0
2103727.0
2103661.0
2103683.0
2103587.0
2103567.0
2103619.0
2103606.0
2103652.0
2103849.0
2103699.0
2103848.0
2103817.0
2103673.0
2103745.0
2103722.0
2103762.0
2103664.0
2103652.0
2103648.0
2103688.0
2103662.0
2103702.0
2103815.0
2103617.0
2103650.0
2103930.0
2103866.0
2103725.0
2103894.0
2103912.0
2103955.0
2103588.0
2103795.0
2103846.0
2103749.0
2103721.0
2103603.0
2103704.0
2103639.0
2103605.0
2103594.0
2103643.0
2103659.0
2103885.0
2103955.0
2103693.0
2103654.0
2103638.0
2103608.0
2103646.0
2103813.0
2103793.0
2103871.0
2103693.0
2103606.0
2103770.0
2103720.0
2103817.0
2103593.0
2103632.0
2103772.0
2103717.0
2103756.0
2103893.0
2103663.0
2103708.0
2103677.0
2103735.0
2103682.0
2103640.0
2103589.0
2103613.0
2103697.0
2103858.0
2103605.0
2103608.0
2103680.0
2103628.0
2103580.0
2103660.0
2103833.0
2103802.0
2103788.0
2103622.0
2103626.0
2103640.0
2103670.0
2103607.0
2103582.0
2103667.0
2103724.0
2103708.0
2103625.0
2103854.0
2103614.0
2103634.0
2103825.0
2103695.0
2103635.0
2103670.0
2103663.0
2103677.0
2103696.0
2103595.0
2103622.0
2103594.0
2103558.0
2103671.0
2103713.0
2103640.0
2103624.0
2103823.0
2103837.0
2103586.0
2103752.0
2103746.0
2103889.0
2103856.0
2103662.0
2103627.0
2103623.0
2103605.0
2103610.0
2103807.0
2103749.0
2103573.0
2103756.0
2103553.0
2103658.0
2103579.0
2103637.0
2103610.0
2103659.0
2103881.0
2103814.0
2103643.0
2103649.0
2103635.0
2103717.0
2103595.0
2103640.0
2103669.0
2103711.0
2103661.0
2103705.0
2103645.0
2103651.0
2103694.0
2103612.0
2103676.0
2103667.0
2103586.0
2103669.0
2103633.0
2103714.0
2103665.0
2103686.0
2103642.0
2103678.0
2103686.0
2103551.0
2103649.0
2103666.0
2103765.0
2103668.0
2103610.0
2103566.0
2103622.0
2103758.0
2103628.0
2103668.0
2103625.0
2103598.0
2103677.0
2103695.0
2103687.0
2103824.0
2103812.0
2103781.0
2103798.0
2103860.0
2103685.0
2103733.0
2103688.0
2103581.0
2103590.0
2103642.0
2103621.0
2103884.0
2103811.0
2103761.0
2103549.0
2103604.0
2103618.0
2103812.0
2103832.0
2103564.0
2103861.0
2103520.0
2103627.0
2103659.0
2103865.0
2103766.0
2103771.0
2103740.0
2103637.0
2103570.0
2103686.0
2103779.0
2103561.0
2103652.0
2103650.0
2103810.0
2103738.0
2103728.0
2103686.0
2103621.0
2103601.0
2103786.0
2103642.0
2103584.0
2103522.0
2103585.0
2103651.0
2103802.0
2103815.0
2103594.0
2103652.0
2103672.0
2103655.0
2103784.0
2103776.0
2103650.0
2103767.0
2103836.0
2103835.0
2103839.0
2103650.0
2103802.0
2103706.0
2103840.0
2103772.0
2103620.0
2103803.0
2103553.0
2103616.0
2103656.0
2103692.0
2103641.0
2103622.0
2103584.0
2103646.0
2103632.0
2103611.0
2103653.0
2103816.0
2103856.0
2103774.0
2103864.0
2103566.0
2103788.0
2103778.0
2103837.0
2103649.0
2103660.0
2103601.0
2103599.0
2103676.0
2103682.0
2103663.0
2103622.0
2103623.0
2103559.0
2103613.0
2103683.0
2103738.0
2103696.0
2103715.0
2103737.0
2103637.0
2103833.0
2103595.0
2103603.0
2103613.0
2103591.0
2103815.0
2103840.0
2103686.0
2103711.0
2103804.0
2103721.0
2103828.0
2103650.0
2103691.0
2103616.0
2103627.0
2103603.0
2103648.0
2103583.0
2103638.0
2103632.0
2103723.0
2103744.0
2103848.0
2103646.0
2103600.0
2103616.0
2103668.0
2103692.0
2103752.0
2103737.0
2103801.0
2103807.0
2103635.0
2103642.0
2103642.0
2103579.0
2103698.0
2103543.0
2103676.0
2103676.0
2103675.0
2103664.0
2103625.0
2103679.0
2103573.0
2103639.0
2103693.0
2103663.0
2103820.0
2103759.0
2103665.0
2103655.0
2103623.0
2103672.0
2103627.0
2103909.0
2103748.0
2103597.0
2103598.0
2103663.0
2103623.0
2103625.0
2103572.0
2103756.0
2103627.0
2103723.0
2103636.0
2103601.0
2103609.0
2103629.0
2103672.0
2103902.0
2103861.0
2103646.0
2103627.0
2103597.0
2103600.0
2103635.0
2103646.0
2103716.0
2103630.0
2103628.0
2103547.0
2103649.0
2103840.0
2103732.0
2103706.0
2103761.0
2103802.0
2103844.0
2103810.0
2103838.0
2103653.0
2103734.0
2103642.0
2103669.0
2103619.0
2103833.0
2103813.0
2103681.0
2103675.0
2103704.0
2103629.0
2103620.0
2103657.0
2103830.0
2103704.0
2103712.0
2103889.0
2103770.0
2103853.0
2103723.0
2103781.0
2103644.0
2103806.0
2103654.0
2103664.0
2103754.0
2103831.0
2103687.0
2103638.0
2103656.0
2103550.0
2103684.0
2103681.0
2103585.0
2103641.0
2103711.0
2103625.0
2103566.0
2103527.0
2103877.0
2103768.0
2103606.0
2103575.0
2103654.0
2103567.0
2103583.0
2103805.0
2103704.0
2103880.0
2103638.0
2103730.0
2103863.0
2103656.0
2103746.0
2103584.0
2103579.0
2103606.0
2103630.0
2103752.0
2103594.0
2103578.0
2103665.0
2103714.0
2103684.0
2103614.0
2103651.0
2103593.0
2103590.0
2103601.0
2103554.0
2103639.0
2103567.0
2103552.0
2103670.0
2103824.0
2103646.0
2103781.0
2103586.0
2103637.0
2103575.0
2103765.0
2103754.0
2103758.0
2103676.0
2103619.0
2103608.0
2103657.0
2103787.0
2103812.0
2103737.0
2103557.0
2103686.0
2103620.0
2103656.0
2103835.0
2103776.0
2103746.0
2103640.0
2103547.0
2103558.0
2103556.0
2103493.0
2103631.0
2103795.0
2103708.0
2103765.0
2103699.0
2103558.0
2103646.0
2103573.0
2103770.0
2103781.0
2103718.0
2103550.0
2103599.0
2103569.0
2103641.0
2103582.0
2103637.0
2103690.0
2103831.0
2103590.0
2103675.0
2103668.0
2103609.0
2103604.0
2103821.0
2103649.0
2103737.0
2103677.0
2103811.0
2103812.0
2103622.0
2103592.0
2103628.0
2103553.0
2103823.0
2103767.0
2103544.0
2103604.0
2103797.0
2103556.0
2103668.0
2103672.0
2103634.0
2103788.0
2103737.0
2103620.0
2103645.0
2103857.0
2103708.0
2103599.0
2103764.0
2103595.0
2103599.0
2103635.0
2103607.0
2103775.0
2103679.0
2103714.0
2103700.0
2103739.0
2103610.0
2103538.0
2103838.0
2103764.0
2103729.0
2103647.0
2103570.0
2103583.0
2103687.0
2103557.0
2103750.0
2103601.0
2103629.0
2103658.0
2103607.0
2103718.0
2103715.0
2103661.0
2103740.0
2103756.0
2103787.0
2103767.0
2103738.0
2103612.0
2103715.0
2103689.0
2103698.0
2103640.0
2103564.0
2103631.0
2103572.0
2103584.0
2103671.0
2103635.0
2103675.0
2103538.0
2103626.0
2103618.0
2103534.0
2103576.0
2103696.0
2103755.0
2103724.0
2103641.0
2103534.0
2103583.0
2103751.0
2103571.0
2103817.0
2103658.0
2103733.0
2103716.0
2103873.0
2103808.0
2103758.0
2103595.0
2103608.0
2103583.0
2103577.0
2103568.0
2103814.0
2103770.0
2103579.0
2103657.0
2103605.0
2103556.0
2103589.0
2103574.0
2103778.0
2103717.0
2103532.0
2103769.0
2103619.0
2103652.0
2103659.0
2103617.0
2103600.0
2103718.0
2103708.0
2103786.0
2103636.0
2103879.0
2103753.0
2103801.0
2103752.0
2103759.0
2103840.0
2103754.0
2103808.0
2103747.0
2103611.0
2103518.0
2103647.0
2103822.0
2103729.0
2103733.0
2103704.0
2103766.0
2103752.0
2103775.0
2103582.0
2103836.0
2103792.0
2103779.0
2103821.0
2103790.0
2103821.0
2103581.0
2103566.0
2103699.0
2103593.0
2103740.0
2103578.0
2103597.0
2103598.0
2103548.0
2103602.0
2103616.0
2103637.0
2103586.0
2103496.0
2103625.0
2103589.0
2103738.0
2103575.0
2103629.0
2103719.0
2103745.0
2103572.0
2103779.0
2103599.0
2103657.0
2103631.0
2103559.0
2103554.0
2103634.0
2103516.0
2103766.0
2103731.0
2103804.0
2103782.0
2103762.0
2103756.0
2103743.0
2103580.0
2103530.0
2103555.0
2103542.0
2103565.0
2103617.0
2103561.0
2103686.0
2103792.0
2103773.0
2103693.0
2103552.0
2103629.0
2103608.0
2103781.0
2103720.0
2103714.0
2103614.0
2103602.0
2103808.0
2103613.0
2103656.0
2103776.0
2103590.0
2103628.0
2103677.0
2103760.0
2103760.0
2103653.0
2103739.0
2103596.0
2103559.0
2103733.0
2103571.0
2103772.0
2103818.0
2103630.0
2103606.0
2103561.0
2103549.0
2103714.0
2103640.0
2103800.0
2103704.0
2103699.0
2103824.0
2103702.0
2103730.0
2103733.0
2103614.0
2103630.0
2103621.0
2103643.0
2103792.0
2103618.0
2103622.0
2103618.0
2103580.0
2103576.0
2103842.0
2103613.0
2103621.0
2103568.0
2103802.0
2103758.0
2103614.0
2103573.0
2103640.0
2103621.0
2103557.0
2103809.0
2103607.0
2103636.0
2103666.0
2103665.0
2103599.0
2103598.0
2103571.0
2103617.0
2103652.0
2103659.0
2103565.0
2103650.0
2103810.0
2103596.0
2103611.0
2103760.0
2103597.0
2103606.0
2103682.0
2103664.0
2103649.0
2103834.0
2103602.0
2103581.0
2103441.0
2103570.0
2103846.0
2103569.0
2103513.0
2103595.0
2103635.0
2103816.0
2103617.0
2103710.0
2103765.0
2103657.0
2103579.0
2103726.0
2103727.0
2103590.0
2103606.0
2103664.0
2103594.0
2103675.0
2103583.0
2103624.0
2103689.0
2103706.0
2103615.0
2103538.0
2103602.0
2103617.0
2103757.0
2103588.0
2103539.0
2103690.0
2103572.0
2103791.0
2103638.0
2103488.0
2103747.0
2103559.0
2103597.0
2103627.0
2103555.0
2103572.0
2103804.0
2103616.0
2103667.0
2103699.0
2103769.0
2103528.0
2103765.0
2103749.0
2103606.0
2103625.0
2103650.0
2103625.0
2103577.0
2103578.0
2103569.0
2103521.0
2103634.0
2103631.0
2103575.0
2103598.0
2103728.0
2103636.0
2103630.0
2103646.0
2103614.0
2103568.0
2103617.0
2103825.0
2103839.0
2103748.0
2103635.0
2103659.0
2103616.0
2103795.0
2103657.0
2103659.0
2103660.0
2103639.0
2103672.0
2103521.0
2103630.0
2103653.0
2103690.0
2103744.0
2103625.0
2103811.0
2103808.0
2103789.0
2103570.0
2103642.0
2103565.0
2103738.0
2103825.0
2103652.0
2103623.0
2103611.0
2103615.0
2103605.0
2103657.0
2103529.0
2103655.0
2103666.0
2103688.0
2103601.0
2103611.0
2103620.0
2103797.0
2103616.0
2103655.0
2103639.0
2103627.0
2103687.0
2103657.0
2103707.0
2103709.0
2103641.0
2103733.0
2103783.0
2103629.0
2103780.0
2103692.0
2103797.0
2103755.0
2103750.0
2103614.0
2103515.0
2103570.0
2103585.0
2103591.0
2103660.0
2103645.0
2103588.0
2103670.0
2103612.0
2103653.0
2103618.0
2103590.0
2103612.0
2103591.0
2103537.0
2103584.0
2103614.0
2103634.0
2103866.0
2103606.0
2103516.0
2103575.0
2103741.0
2103670.0
2103702.0
2103821.0
2103624.0
2103706.0
2103669.0
2103764.0
2103602.0
2103637.0
2103864.0
2103784.0
2103597.0
2103590.0
2103591.0
2103590.0
2103650.0
2103539.0
2103605.0
2103566.0
2103538.0
2103596.0
2103583.0
2103591.0
2103546.0
2103550.0
2103642.0
2103585.0
2103546.0
2103548.0
2103609.0
2103574.0
2103541.0
2103578.0
2103486.0
2103609.0
2103721.0
2103602.0
2103532.0
2103740.0
2103529.0
2103555.0
2103562.0
2103708.0
2103564.0
2103549.0
2103570.0
2103885.0
2103606.0
2103647.0
2103791.0
2103631.0
2103554.0
2103539.0
2103582.0
2103597.0
2103610.0
2103577.0
2103591.0
2103561.0
2103575.0
2103623.0
2103548.0
2103718.0
2103743.0
2103751.0
2103553.0
2103585.0
2103581.0
2103567.0
2103552.0
2103530.0
2103547.0
2103563.0
2103621.0
2103829.0
2103722.0
2103654.0
2103669.0
2103575.0
2103668.0
2103679.0
2103636.0
2103577.0
2103627.0
2103736.0
2103676.0
2103754.0
2103635.0
2103517.0
2103616.0
2103570.0
2103596.0
2103593.0
2103596.0
2103536.0
2103585.0
2103779.0
2103624.0
2103620.0
2103568.0
2103602.0
2103568.0
2103622.0
2103686.0
2103635.0
2103638.0
2103761.0
2103590.0
2103567.0
2103707.0
2103683.0
2103642.0
2103683.0
2103533.0
2103623.0
2103614.0
2103561.0
2103638.0
2103727.0
2103851.0
2103690.0
2103721.0
2103511.0
2103550.0
2103575.0
2103559.0
2103500.0
2103592.0
2103791.0
2103748.0
2103542.0
2103725.0
2103601.0
2103666.0
2103643.0
2103551.0
2103673.0
2103613.0
2103624.0
2103801.0
2103722.0
2103609.0
2103647.0
2103762.0
2103609.0
2103783.0
2103619.0
2103592.0
2103812.0
2103654.0
2103503.0
2103666.0
2103760.0
2103537.0
2103550.0
2103631.0
2103620.0
2103656.0
2103706.0
2103575.0
2103730.0
2103599.0
2103804.0
2103910.0
2103703.0
2103659.0
2103708.0
2103707.0
2103730.0
2103581.0
2103633.0
2103792.0
2103843.0
2103584.0
2103768.0
2103630.0
2103610.0
2103676.0
2103604.0
2103649.0
2103570.0
2103756.0
2103591.0
2103591.0
2103632.0
2103618.0
2103626.0
2103654.0
2103576.0
2103555.0
2103841.0
2103784.0
2103637.0
2103730.0
2103548.0
2103540.0
2103631.0
2103614.0
2103796.0
2103636.0
2103601.0
2103728.0
2103614.0
2103614.0
2103721.0
2103579.0
2103530.0
2103772.0
2103573.0
2103616.0
2103606.0
2103780.0
2103613.0
2103709.0
2103783.0
2103750.0
2103514.0
2103640.0
2103822.0
2103610.0
2103684.0
2103764.0
2103566.0
2103599.0
2103604.0
2103532.0
2103632.0
2103555.0
2103631.0
2103762.0
2103732.0
2103578.0
2103593.0
2103572.0
2103587.0
2103553.0
2103535.0
2103746.0
2103632.0
2103543.0
2103785.0
2103640.0
2103713.0
2103603.0
2103554.0
2103623.0
2103636.0
2103575.0
2103609.0
2103645.0
2103609.0
2103658.0
2103613.0
2103742.0
2103684.0
2103580.0
2103585.0
2103542.0
2103703.0
2103614.0
2103598.0
2103646.0
2103610.0
2103663.0
2103707.0
2103816.0
2103814.0
2103575.0
2103640.0
2103619.0
2103552.0
2103596.0
2103805.0
2103728.0
2103662.0
2103567.0
2103499.0
2103752.0
2103739.0
2103714.0
2103581.0
2103571.0
2103502.0
2103521.0
2103509.0
2103708.0
2103587.0
2103545.0
2103612.0
2103654.0
2103805.0
2103665.0
2103572.0
2103605.0
2103649.0
2103687.0
2103807.0
2103809.0
2103540.0
2103565.0
2103562.0
2103721.0
2103774.0
2103787.0
2103588.0
2103575.0
2103525.0
2103658.0
2103760.0
2103739.0
2103726.0
2103785.0
2103604.0
2103670.0
2103634.0
2103587.0
2103611.0
2103781.0
2103609.0
2103621.0
2103668.0
2103550.0
2103572.0
2103725.0
2103599.0
2103619.0
2103592.0
2103805.0
2103587.0
2103547.0
2103590.0
2103876.0
2103612.0
2103580.0
2103616.0
2103753.0
2103787.0
2103685.0
2103616.0
2103673.0
2103603.0
2103761.0
2103640.0
2103590.0
2103788.0
2103601.0
2103629.0
2103612.0
2103574.0
2103543.0
2103527.0
2103713.0
2103769.0
2103611.0
2103497.0
2103596.0
2103748.0
2103771.0
2103578.0
2103582.0
2103638.0
2103618.0
2103542.0
2103636.0
2103646.0
2103702.0
2103778.0
2103635.0
2103612.0
2103681.0
2103590.0
2103622.0
2103579.0
2103538.0
2103581.0
2103562.0
2103530.0
2103742.0
2103724.0
2103763.0
2103625.0
2103566.0
2103626.0
2103618.0
2103658.0
2103785.0
2103810.0
2103601.0
2103607.0
2103795.0
2103562.0
2103584.0
2103606.0
2103748.0
2103821.0
2103603.0
2103595.0
2103546.0
2103662.0
2103552.0
2103660.0
2103677.0
2103629.0
2103621.0
2103611.0
2103601.0
2103568.0
2103758.0
2103763.0
2103663.0
2103686.0
2103658.0
2103578.0
2103567.0
2103631.0
2103712.0
2103534.0
2103537.0
2103545.0
2103686.0
2103709.0
2103751.0
2103779.0
2103583.0
2103762.0
2103630.0
2103753.0
2103663.0
2103633.0
2103595.0
2103624.0
2103677.0
2103788.0
2103581.0
2103655.0
2103712.0
2103757.0
2103567.0
2103549.0
2103737.0
2103789.0
2103754.0
2103721.0
2103581.0
2103583.0
2103572.0
2103788.0
2103593.0
2103587.0
2103622.0
2103549.0
2103635.0
2103789.0
2103705.0
2103698.0
2103630.0
2103531.0
2103694.0
2103765.0
2103730.0
2103577.0
2103560.0
2103718.0
2103483.0
2103694.0
2103590.0
2103554.0
2103583.0
2103589.0
2103783.0
2103792.0
2103712.0
2103765.0
2103778.0
2103611.0
2103622.0
2103550.0
2103628.0
2103569.0
2103582.0
2103585.0
2103549.0
2103738.0
2103709.0
2103761.0
2103624.0
2103608.0
2103557.0
2103593.0
2103559.0
2103600.0
2103562.0
2103609.0
2103672.0
2103601.0
2103756.0
2103753.0
2103626.0
2103688.0
2103702.0
2103696.0
2103594.0
2103800.0
2103788.0
2103653.0
2103567.0
2103613.0
2103571.0
2103673.0
2103615.0
2103639.0
2103605.0
2103559.0
2103706.0
2103648.0
2103586.0
2103729.0
2103813.0
2103803.0
2103625.0
2103595.0
2103633.0
2103708.0
2103567.0
2103580.0
2103534.0
2103586.0
2103711.0
2103681.0
2103686.0
2103587.0
2103531.0
2103723.0
2103772.0
2103772.0
2103761.0
2103829.0
2103771.0
2103708.0
2103792.0
2103587.0
2103592.0
2103544.0
2103635.0
2103544.0
2103578.0
2103670.0
2103773.0
2103590.0
2103807.0
2103788.0
2103783.0
2103530.0
2103558.0
2103635.0
2103634.0
2103562.0
2103635.0
2103634.0
2103692.0
2103590.0
2103564.0
2103567.0
2103815.0
2103592.0
2103700.0
2103644.0
2103564.0
2103704.0
2103753.0
2103578.0
2103758.0
2103592.0
2103737.0
2103656.0
2103627.0
2103636.0
2103660.0
2103528.0
2103604.0
2103598.0
2103646.0
2103610.0
2103725.0
2103796.0
2103682.0
2103641.0
2103737.0
2103722.0
2103805.0
2103567.0
2103601.0
2103524.0
2103556.0
2103646.0
2103552.0
2103589.0
2103584.0
2103603.0
2103839.0
2103570.0
2103599.0
2103576.0
2103577.0
2103600.0
2103573.0
2103796.0
2103621.0
2103644.0
2103575.0
2103576.0
2103633.0
2103627.0
2103735.0
2103775.0
2103662.0
2103499.0
2103632.0
2103569.0
2103545.0
2103533.0
2103587.0
2103803.0
2103722.0
2103795.0
2103738.0
2103618.0
2103814.0
2103680.0
2103531.0
2103590.0
2103582.0
2103610.0
2103604.0
2103650.0
2103807.0
2103758.0
2103790.0
2103735.0
2103772.0
2103727.0
2103589.0
2103582.0
2103616.0
2103581.0
2103597.0
2103608.0
2103627.0
2103757.0
2103812.0
2103730.0
2103761.0
2103610.0
2103506.0
2103563.0
2103698.0
2103778.0
2103763.0
2103702.0
2103597.0
2103605.0
2103637.0
2103762.0
2103591.0
2103604.0
2103588.0
2103624.0
2103819.0
2103518.0
2103570.0
2103575.0
2103606.0
2103836.0
2103758.0
2103582.0
2103533.0
2103592.0
2103787.0
2103827.0
2103836.0
2103729.0
2103762.0
2103573.0
2103573.0
2103578.0
2103604.0
2103623.0
2103775.0
2103737.0
2215240.0
2186644.0
2216446.0
2100265.0
2118853.0
2105492.0
2111011.0
2105998.0
2109006.0
2107507.0
2107114.0
2107274.0
2107274.0
2108183.0
2106857.0
2109217.0
2109475.0
2109475.0
2107537.0
2107717.0
2108992.0
2107815.0
2108699.0
2108064.0
2108675.0
2108376.0
2108593.0
2108459.0
2108713.0
2108659.0
2108476.0
2108726.0
2108664.0
2108922.0
2108776.0
2109087.0
2108790.0
2108896.0
2108791.0
2108889.0
2108562.0
2108896.0
2108580.0
2108893.0
2108709.0
2108840.0
2108884.0
2108719.0
2108721.0
2108671.0
2108881.0
2108681.0
2108799.0
2108651.0
2108799.0
2108719.0
2108812.0
2108748.0
2108656.0
2108747.0
2108714.0
2108770.0
2108708.0
2108645.0
2108729.0
2108736.0
2108814.0
2108904.0
2108781.0
2108936.0
2108715.0
2108756.0
2108704.0
2108729.0
2108655.0
2108691.0
2108771.0
2108815.0
2108676.0
2108860.0
2108675.0
2108784.0
2108704.0
2108790.0
2108690.0
2108795.0
2108817.0
2108811.0
2108761.0
2108671.0
2108784.0
2108728.0
2108727.0
2108626.0
2108975.0
2108752.0
2108786.0
2108812.0
2108707.0
2108736.0
2108737.0
2108698.0
2108774.0
2108675.0
2108713.0
2108842.0
2108944.0
2108922.0
2108877.0
2108753.0
2108698.0
2108798.0
2108751.0
2108727.0
2108790.0
2108855.0
2108669.0
2108800.0
2108699.0
2108756.0
2108913.0
2108890.0
2108730.0
2108701.0
2108789.0
2108960.0
2108623.0
2108749.0
2108911.0
2108886.0
2108715.0
2108887.0
2108777.0
2108697.0
2108790.0
2108724.0
2108908.0
2108707.0
2108733.0
2108705.0
2108721.0
2108714.0
2108946.0
2108789.0
2108723.0
2108790.0
2108712.0
2108972.0
2108863.0
2108865.0
2108906.0
2108735.0
2108790.0
2108725.0
2108712.0
2108787.0
2108917.0
2108865.0
2108906.0
2108871.0
2108789.0
2108883.0
2108865.0
2108841.0
2108746.0
2108823.0
2108762.0
2108918.0
2108645.0
2108697.0
2108731.0
2108905.0
2108714.0
2108719.0
2108914.0
2108801.0
2108888.0
2108719.0
2108897.0
2108785.0
2108808.0
2108920.0
2108951.0
2108808.0
2108917.0
2108844.0
2108750.0
2108720.0
2108843.0
2108641.0
2108755.0
2108641.0
2108789.0
2108750.0
2108716.0
2108711.0
2108794.0
2108729.0
2108672.0
2108775.0
2108944.0
2108772.0
2108744.0
2108901.0
2108844.0
2108962.0
2108914.0
2108904.0
2108723.0
2108736.0
2108734.0
2108710.0
2108679.0
2108739.0
2108717.0
2108825.0
2108666.0
2108853.0
2108744.0
2108782.0
2108712.0
2108803.0
2108692.0
2108916.0
2108711.0
2108923.0
2108835.0
2108719.0
2108711.0
2108898.0
2108943.0
2108861.0
2108760.0
2108754.0
2108738.0
2108768.0
2108717.0
2108625.0
2108650.0
2108877.0
2108849.0
2108863.0
2108663.0
2108734.0
2108748.0
2108779.0
2108780.0
2108753.0
2108782.0
2108901.0
2108923.0
2108779.0
2108904.0
2108775.0
2108736.0
2108729.0
2108883.0
2108917.0
2108939.0
2108825.0
2108819.0
2108899.0
2108844.0
2108778.0
2108724.0
2108778.0
2108707.0
2108927.0
2108761.0
2108939.0
2108870.0
2108685.0
2108738.0
2108645.0
2108743.0
2108777.0
2108754.0
2108917.0
2108867.0
2108677.0
2108640.0
2108762.0
2108764.0
2108758.0
2108759.0
2108871.0
2108720.0
2108757.0
2108761.0
2108733.0
2108671.0
2108775.0
2108854.0
2108730.0
2108790.0
2108918.0
2108891.0
2108661.0
2108736.0
2108757.0
2108781.0
2108903.0
2108868.0
2108875.0
2108748.0
2108932.0
2108719.0
2108721.0
2108744.0
2108708.0
2108767.0
2108728.0
2108843.0
2108918.0
2108807.0
2108953.0
2108874.0
2108711.0
2108710.0
2108794.0
2108683.0
2108808.0
2108826.0
2108946.0
2108911.0
2108668.0
2108789.0
2108622.0
2108733.0
2108718.0
2108707.0
2108888.0
2108882.0
2108697.0
2108689.0
2108785.0
2108705.0
2108736.0
2108751.0
2108916.0
2108913.0
2108728.0
2108997.0
2108795.0
2108706.0
2108841.0
2108788.0
2108719.0
2108763.0
2108751.0
2108836.0
2108945.0
2108772.0
2108930.0
2108706.0
2108759.0
2108744.0
2108725.0
2108732.0
2108846.0
2108887.0
2108702.0
2108833.0
2108705.0
2108719.0
2108937.0
2108746.0
2108879.0
2108906.0
2108666.0
2108790.0
2108875.0
2108717.0
2108826.0
2108889.0
2108812.0
2108734.0
2108904.0
2108759.0
2108867.0
2108778.0
2108773.0
2108949.0
2108906.0
2108771.0
2108790.0
2108696.0
2108711.0
2108846.0
2108697.0
2108819.0
2108735.0
2108828.0
2108734.0
2108744.0
2108748.0
2108899.0
2108754.0
2108757.0
2108692.0
2108762.0
2108771.0
2108774.0
2108912.0
2108869.0
2108776.0
2108662.0
2108738.0
2108699.0
2108770.0
2108910.0
2108934.0
2108791.0
2108683.0
2108813.0
2108878.0
2108743.0
2108917.0
2108950.0
2108826.0
2108777.0
2108789.0
2108785.0
2108779.0
2108757.0
2108915.0
2108969.0
2108698.0
2108794.0
2108913.0
2108730.0
2108791.0
2108754.0
2108885.0
2108913.0
2108854.0
2108750.0
2108725.0
2108871.0
2108934.0
2108713.0
2108826.0
2108785.0
2108921.0
2108738.0
2108882.0
2108866.0
2108841.0
2108780.0
2108830.0
2108868.0
2108818.0
2108728.0
2108857.0
2108690.0
2108796.0
2108789.0
2108751.0
2108952.0
2108989.0
2108764.0
2108786.0
2108948.0
2108690.0
2108732.0
2108751.0
2108956.0
2108721.0
2108780.0
2108759.0
2108786.0
2108740.0
2108719.0
2108750.0
2108947.0
2108960.0
2109042.0
2108940.0
2108738.0
2108780.0
2108755.0
2108726.0
2108687.0
2108815.0
2108819.0
2108930.0
2108885.0
2108747.0
2108688.0
2108722.0
2108654.0
2108733.0
2108761.0
2108926.0
2108749.0
2108772.0
2108744.0
2108902.0
2108743.0
2108740.0
2108703.0
2108683.0
2108663.0
2108800.0
2108668.0
2108774.0
2108934.0
2108884.0
2108939.0
2108806.0
2108776.0
2108710.0
2108728.0
2108753.0
2108889.0
2108708.0
2108755.0
2108873.0
2108889.0
2108776.0
2108788.0
2108753.0
2108795.0
2108838.0
2108868.0
2108938.0
2108704.0
2108695.0
2108762.0
2108726.0
2108712.0
2108670.0
2108758.0
2108743.0
2108721.0
2108733.0
2108738.0
2108937.0
2108812.0
2108850.0
2108835.0
2108751.0
2108722.0
2108794.0
2108738.0
2108819.0
2108734.0
2108865.0
2108867.0
2108858.0
2108906.0
2108746.0
2108729.0
2108730.0
2108639.0
2108712.0
2108745.0
2108893.0
2108721.0
2108931.0
2108945.0
2108718.0
2108726.0
2108593.0
2108669.0
2108730.0
2108773.0
2108676.0
2108678.0
2108826.0
2108711.0
2108933.0
2108727.0
2108710.0
2108685.0
2108879.0
2108716.0
2108702.0
2108723.0
2108729.0
2108708.0
2108781.0
2108943.0
2108919.0
2108807.0
2108824.0
2108726.0
2108751.0
2108752.0
2108711.0
2108714.0
2108725.0
2108800.0
2108969.0
2108898.0
2108848.0
2108706.0
2108703.0
2108783.0
2108852.0
2108813.0
2108728.0
2108805.0
2108750.0
2108709.0
2108699.0
2108647.0
2108780.0
2108743.0
2108840.0
2108768.0
2108902.0
2108810.0
2108959.0
2108966.0
2108671.0
2108716.0
2108657.0
2108837.0
2108721.0
2108705.0
2108751.0
2108765.0
2108784.0
2108761.0
2108752.0
2108703.0
2108826.0
2108756.0
2108706.0
2108774.0
2108904.0
2108767.0
2108818.0
2108718.0
2108818.0
2108947.0
2108888.0
2108685.0
2108787.0
2108726.0
2108750.0
2108736.0
2108700.0
2108734.0
2108797.0
2108763.0
2108710.0
2108760.0
2108819.0
2108748.0
2108695.0
2108717.0
2108867.0
2108717.0
2108752.0
2108758.0
2108734.0
2108739.0
2108698.0
2108816.0
2108671.0
2108787.0
2108906.0
2108899.0
2108749.0
2108729.0
2108683.0
2108705.0
2108740.0
2108678.0
2108650.0
2108667.0
2108758.0
2108744.0
2108795.0
2108773.0
2108686.0
2108725.0
2108739.0
2108763.0
2108923.0
2108870.0
2108793.0
2108730.0
2108793.0
2108683.0
2108772.0
2108933.0
2108774.0
2108776.0
2108823.0
2108914.0
2108802.0
2108753.0
2108697.0
2108731.0
2108757.0
2108747.0
2108729.0
2108977.0
2108886.0
2108914.0
2108999.0
2108681.0
2108789.0
2108700.0
2108751.0
2108803.0
2108691.0
2108881.0
2108757.0
2108765.0
2108716.0
2108733.0
2108703.0
2108806.0
2108764.0
2108704.0
2108895.0
2108781.0
2108734.0
2108803.0
2108869.0
2108886.0
2108898.0
2108681.0
2108795.0
2108759.0
2108755.0
2108784.0
2108812.0
2108916.0
2108787.0
2108774.0
2108745.0
2108881.0
2108918.0
2108923.0
2108914.0
2108911.0
2108913.0
2108894.0
2108898.0
2108839.0
2108876.0
2108906.0
2108786.0
2108907.0
2108841.0
2108712.0
2108733.0
2108715.0
2108758.0
2108778.0
2108733.0
2108757.0
2108679.0
2108739.0
2108909.0
2108807.0
2108828.0
2108669.0
2108777.0
2108870.0
2108712.0
2108674.0
2108764.0
2108911.0
2108646.0
2108733.0
2108764.0
2108656.0
2108702.0
2108756.0
2108735.0
2108906.0
2108753.0
2108941.0
2108908.0
2108903.0
2108943.0
2108858.0
2108753.0
2108662.0
2108752.0
2108835.0
2108766.0
2108730.0
2108787.0
2108904.0
2108902.0
2108696.0
2108684.0
2108980.0
2108865.0
2108841.0
2108681.0
2108683.0
2108869.0
2108901.0
2108736.0
2108727.0
2108742.0
2108908.0
2108837.0
2108695.0
2108912.0
2108890.0
2108699.0
2108883.0
2108776.0
2108710.0
2108811.0
2108699.0
2108732.0
2108718.0
2108689.0
2108917.0
2108981.0
2108674.0
2108714.0
2108722.0
2108709.0
2108775.0
2108775.0
2108772.0
2108882.0
2108775.0
2108659.0
2108969.0
2108738.0
2108702.0
2108773.0
2108894.0
2108715.0
2108901.0
2108760.0
2108740.0
2108765.0
2108775.0
2108928.0
2108915.0
2108771.0
2108851.0
2108929.0
2108765.0
2108742.0
2108717.0
2108702.0
2108751.0
2108971.0
2108900.0
2108714.0
2108745.0
2108737.0
2108945.0
2108748.0
2108957.0
2108720.0
2108730.0
2108770.0
2108823.0
2108934.0
2108743.0
2108660.0
2108749.0
2108719.0
2108754.0
2108747.0
2108745.0
2108851.0
2108897.0
2108917.0
2108897.0
2108900.0
2108897.0
2108971.0
2108680.0
2108838.0
2108679.0
2108850.0
2108751.0
2108726.0
2108837.0
2108847.0
2108725.0
2108695.0
2108703.0
2108693.0
2108744.0
2108731.0
2108782.0
2108857.0
2108898.0
2108865.0
2108785.0
2108686.0
2108727.0
2108739.0
2108693.0
2108634.0
2108923.0
2108767.0
2108707.0
2108818.0
2108698.0
2108779.0
2108747.0
2108644.0
2108724.0
2108744.0
2108743.0
2108759.0
2108815.0
2108837.0
2108784.0
2108776.0
2108727.0
2108824.0
2108855.0
2108769.0
2108878.0
2108655.0
2108709.0
2108909.0
2108781.0
2108844.0
2108703.0
2108926.0
2108848.0
2108767.0
2108852.0
2108974.0
2108800.0
2108664.0
2108706.0
2108708.0
2108963.0
2108912.0
2108849.0
2108854.0
2108803.0
2108728.0
2108742.0
2108727.0
2108711.0
2108937.0
2108753.0
2108717.0
2108679.0
2108705.0
2108680.0
2108795.0
2108896.0
2108767.0
2108723.0
2108745.0
2108894.0
2108764.0
2108766.0
2108757.0
2108688.0
2108741.0
2108737.0
2108662.0
2108682.0
2108876.0
2108735.0
2108912.0
2108813.0
2108771.0
2108941.0
2108904.0
2108719.0
2108786.0
2108699.0
2108716.0
2108864.0
2108756.0
2108695.0
2108702.0
2108685.0
2108716.0
2108726.0
2108804.0
2108716.0
2108751.0
2108722.0
2108756.0
2108778.0
2108663.0
2108721.0
2108720.0
2108700.0
2108764.0
2108980.0
2108878.0
2108713.0
2108709.0
2108704.0
2108797.0
2108759.0
2108880.0
2108959.0
2108666.0
2108831.0
2108778.0
2108802.0
2108682.0
2108639.0
2108709.0
2108797.0
2108755.0
2108692.0
2108779.0
2108697.0
2108805.0
2108790.0
2108919.0
2108837.0
2108720.0
2108839.0
2108857.0
2108969.0
2108829.0
2108852.0
2108723.0
2108760.0
2108751.0
2108829.0
2108799.0
2108721.0
2108717.0
2108781.0
2108886.0
2108906.0
2108949.0
2108868.0
2108773.0
2108680.0
2108696.0
2108747.0
2108787.0
2108752.0
2108774.0
2108920.0
2108780.0
2108726.0
2108737.0
2108706.0
2108833.0
2108694.0
2108907.0
2108909.0
2108727.0
2108658.0
2108757.0
2108679.0
2108730.0
2108723.0
2108769.0
2108751.0
2108897.0
2108797.0
2108661.0
2108789.0
2108768.0
2108665.0
2108770.0
2108882.0
2108897.0
2108897.0
2108841.0
2108907.0
2108866.0
2108899.0
2108800.0
2108914.0
2108792.0
2108613.0
2108776.0
2108758.0
2108786.0
2108878.0
2108884.0
2108692.0
2108748.0
2108709.0
2108707.0
2108813.0
2108713.0
2108850.0
2108800.0
2108699.0
2108791.0
2108679.0
2108741.0
2108741.0
2108717.0
2108805.0
2108926.0
2108847.0
2108712.0
2108862.0
2108741.0
2108672.0
2108703.0
2108676.0
2108719.0
2108731.0
2108706.0
2108766.0
2108849.0
2108894.0
2108671.0
2108664.0
2108740.0
2108729.0
2108775.0
2108893.0
2108958.0
2108747.0
2108745.0
2108819.0
2108670.0
2108780.0
2108778.0
2108908.0
2108939.0
2108784.0
2108718.0
2108706.0
2109012.0
2108721.0
2108748.0
2108742.0
2108845.0
2108857.0
2108753.0
2108716.0
2108920.0
2108881.0
2108934.0
2108809.0
2108739.0
2108729.0
2108774.0
2108778.0
2108916.0
2108763.0
2108837.0
2108711.0
2108688.0
2108687.0
2108653.0
2108964.0
2108895.0
2108807.0
2108717.0
2108736.0
2108842.0
2108722.0
2108682.0
2108791.0
2108932.0
2108792.0
2108814.0
2108805.0
2108764.0
2108807.0
2108680.0
2108781.0
2108910.0
2108741.0
2108709.0
2108682.0
2108712.0
2108893.0
2108650.0
2108962.0
2108708.0
2108905.0
2108740.0
2108692.0
2108741.0
2108704.0
2108692.0
2108683.0
2108740.0
2108906.0
2108764.0
2108880.0
2108691.0
2108702.0
2108696.0
2108763.0
2108725.0
2108772.0
2108981.0
2108780.0
2108896.0
2108907.0
2108925.0
2108999.0
2108935.0
2108926.0
2108879.0
2108839.0
2108692.0
2108739.0
2108669.0
2108792.0
2108605.0
2108774.0
2108722.0
2108740.0
2108723.0
2108789.0
2108916.0
2108895.0
2108901.0
2108674.0
2108740.0
2108762.0
2108979.0
2108925.0
2108882.0
2108799.0
2108789.0
2108652.0
2108753.0
2108955.0
2108884.0
2108828.0
2108945.0
2108661.0
2108742.0
2108759.0
2108798.0
2108783.0
2108754.0
2108637.0
2108747.0
2108745.0
2108748.0
2108731.0
2108714.0
2108751.0
2108678.0
2108645.0
2108763.0
2108911.0
2108924.0
2108894.0
2108822.0
2108608.0
2108730.0
2108765.0
2108792.0
2108904.0
2108840.0
2108803.0
2108708.0
2108922.0
2108658.0
2108685.0
2108685.0
2108680.0
2108697.0
2108655.0
2108708.0
2108573.0
2108716.0
2108756.0
2108642.0
2108742.0
2108592.0
2108761.0
2108774.0
2108921.0
2108738.0
2108746.0
2108700.0
2108719.0
2108765.0
2108856.0
2108922.0
2108920.0
2108667.0
2108727.0
2108707.0
2108779.0
2108682.0
2108734.0
2108751.0
2108888.0
2108888.0
2108833.0
2108663.0
2108629.0
2108752.0
2108752.0
2108722.0
2108963.0
2108861.0
2108613.0
2108613.0
2108698.0
2108916.0
2108849.0
2108692.0
2108751.0
2108676.0
2108714.0
2108771.0
2108713.0
2108927.0
2108725.0
2108979.0
2108950.0
2108837.0
2108876.0
2108865.0
2108788.0
2108698.0
2108775.0
2108722.0
2108698.0
2108724.0
2108756.0
2108891.0
2108666.0
2108729.0
2108815.0
2108672.0
2108758.0
2108840.0
2108779.0
2108693.0
2108720.0
2108723.0
2108689.0
2108943.0
2108703.0
2108711.0
2108726.0
2108735.0
2108737.0
2108620.0
2108714.0
2108750.0
2108758.0
2108837.0
2108774.0
2108709.0
2108752.0
2108739.0
2108757.0
2108637.0
2108867.0
2108867.0
2108728.0
2108614.0
2108717.0
2108734.0
2108659.0
2108684.0
2108759.0
2108859.0
2108697.0
2108719.0
2108705.0
2108768.0
2108742.0
2108768.0
2108753.0
2108738.0
2108782.0
2108912.0
2108799.0
2108915.0
2108920.0
2108924.0
2108628.0
2108879.0
2108738.0
2108653.0
2108701.0
2108866.0
2108928.0
2108901.0
2108691.0
2108821.0
2108852.0
2108846.0
2108699.0
2108765.0
2108708.0
2108752.0
2108784.0
2108751.0
2108881.0
2108699.0
2108715.0
2108681.0
2108654.0
2108730.0
2108678.0
2108733.0
2108661.0
2108738.0
2108674.0
2108732.0
2108775.0
2108634.0
2108851.0
2108761.0
2108989.0
2108646.0
2108689.0
2108693.0
2108669.0
2108720.0
2108817.0
2108879.0
2108663.0
2108726.0
2108721.0
2108722.0
2108631.0
2108689.0
2108639.0
2108636.0
2108754.0
2108632.0
2108655.0
2108735.0
2108634.0
2108676.0
2108704.0
2108806.0
2108899.0
2108955.0
2108882.0
2108908.0
2108925.0
2108604.0
2108704.0
2108681.0
2108699.0
2108737.0
2108655.0
2108729.0
2108689.0
2108677.0
2108698.0
2108729.0
2108722.0
2108729.0
2108672.0
2108622.0
2108855.0
2108702.0
2108720.0
2108798.0
2108671.0
2108765.0
2108763.0
2108792.0
2108932.0
2108864.0
2108911.0
2108939.0
2108595.0
2108696.0
2108770.0
2108792.0
2108700.0
2108772.0
2108682.0
2108746.0
2108728.0
2108699.0
2108680.0
2108729.0
2108690.0
2108648.0
2108699.0
2108687.0
2108752.0
2108746.0
2108712.0
2108818.0
2108753.0
2108696.0
2108739.0
2108636.0
2108704.0
2143475.0
2210889.0
2106472.0
2109475.0
2102974.0
2103408.0
2102919.0
2102164.0
2103671.0
2103044.0
2106277.0
2103137.0
2108231.0
2102909.0
2109132.0
2103075.0
2107586.0
2103247.0
2105659.0
2103830.0
2104676.0
2104223.0
2104436.0
2104421.0
2104275.0
2104496.0
2104198.0
2104561.0
2104132.0
2104503.0
2104112.0
2104688.0
2104147.0
2104523.0
2104190.0
2104394.0
2104356.0
2104366.0
2104360.0
2104419.0
2104418.0
2104396.0
2104317.0
2104361.0
2104302.0
2104399.0
2104294.0
2104560.0
2104321.0
2104360.0
2104399.0
2104299.0
2104394.0
2104178.0
2104450.0
2104283.0
2104458.0
2104318.0
2104422.0
2104369.0
2104322.0
2104338.0
2104312.0
2104383.0
2104355.0
2104556.0
2104440.0
2104355.0
2104319.0
2104444.0
2104387.0
2104390.0
2104330.0
2104554.0
2104352.0
2104562.0
2104545.0
2104544.0
2104569.0
2104526.0
2104327.0
2104334.0
2104415.0
2104397.0
2104392.0
2104392.0
2104440.0
2104579.0
2104379.0
2104401.0
2104392.0
2104545.0
2104570.0
2104520.0
2104388.0
2104467.0
2104330.0
2104265.0
2104380.0
2104326.0
2104366.0
2104485.0
2104483.0
2104542.0
2104418.0
2104298.0
2104251.0
2104443.0
2104304.0
2104333.0
2104347.0
2104419.0
2104377.0
2104317.0
2104390.0
2104409.0
2104460.0
2104579.0
2104366.0
2104398.0
2104353.0
2104280.0
2104383.0
2104311.0
2104390.0
2104491.0
2104587.0
2104532.0
2104543.0
2104470.0
2104502.0
2104364.0
2104296.0
2104340.0
2104341.0
2104306.0
2104406.0
2104427.0
2104497.0
2104549.0
2104489.0
2104364.0
2104363.0
2104373.0
2104563.0
2104398.0
2104510.0
2104574.0
2104358.0
2104328.0
2104364.0
2104397.0
2104412.0
2104607.0
2104478.0
2104558.0
2104426.0
2104403.0
2104304.0
2104333.0
2104356.0
2104376.0
2104364.0
2104393.0
2104406.0
2104508.0
2104542.0
2104357.0
2104427.0
2104365.0
2104520.0
2104338.0
2104299.0
2104360.0
2104583.0
2104330.0
2104301.0
2104378.0
2104352.0
2104537.0
2104311.0
2104468.0
2104483.0
2104328.0
2104538.0
2104322.0
2104574.0
2104493.0
2104504.0
2104371.0
2104509.0
2104342.0
2104576.0
2104448.0
2104449.0
2104525.0
2104447.0
2104284.0
2104348.0
2104344.0
2104389.0
2104256.0
2104345.0
2104359.0
2104330.0
2104326.0
2104474.0
2104394.0
2104519.0
2104560.0
2104325.0
2104514.0
2104317.0
2104414.0
2104372.0
2104337.0
2104290.0
2104565.0
2104604.0
2104426.0
2104360.0
2104348.0
2104310.0
2104459.0
2104399.0
2104581.0
2104552.0
2104274.0
2104359.0
2104357.0
2104401.0
2104366.0
2104388.0
2104388.0
2104399.0
2104414.0
2104344.0
2104355.0
2104484.0
2104566.0
2104375.0
2104386.0
2104334.0
2104329.0
2104299.0
2104367.0
2104508.0
2104400.0
2104378.0
2104337.0
2104299.0
2104440.0
2104392.0
2104555.0
2104553.0
2104623.0
2104296.0
2104388.0
2104316.0
2104293.0
2104247.0
2104369.0
2104290.0
2104246.0
2104250.0
2104314.0
2104374.0
2104469.0
2104313.0
2104573.0
2104343.0
2104536.0
2104320.0
2104327.0
2104333.0
2104415.0
2104484.0
2104380.0
2104402.0
2104454.0
2104335.0
2104357.0
2104364.0
2104300.0
2104370.0
2104491.0
2104392.0
2104457.0
2104476.0
2104367.0
2104238.0
2104362.0
2104546.0
2104558.0
2104572.0
2104408.0
2104348.0
2104295.0
2104387.0
2104328.0
2104364.0
2104359.0
2104303.0
2104344.0
2104299.0
2104349.0
2104334.0
2104315.0
2104326.0
2104373.0
2104339.0
2104308.0
2104259.0
2104347.0
2104342.0
2104307.0
2104369.0
2104334.0
2104406.0
2104328.0
2104311.0
2104309.0
2104337.0
2104324.0
2104415.0
2104382.0
2104347.0
2104469.0
2104316.0
2104361.0
2104418.0
2104462.0
2104513.0
2104523.0
2104545.0
2104522.0
2104284.0
2104370.0
2104377.0
2104394.0
2104354.0
2104363.0
2104424.0
2104384.0
2104346.0
2104554.0
2104542.0
2104536.0
2104533.0
2104524.0
2104516.0
2104485.0
2104439.0
2104396.0
2104327.0
2104350.0
2104281.0
2104573.0
2104390.0
2104268.0
2104296.0
2104327.0
2104354.0
2104313.0
2104324.0
2104533.0
2104556.0
2104538.0
2104310.0
2104551.0
2104458.0
2104370.0
2104485.0
2104402.0
2104392.0
2104501.0
2104516.0
2104484.0
2104365.0
2104295.0
2104328.0
2104350.0
2104506.0
2104540.0
2104368.0
2104317.0
2104339.0
2104419.0
2104459.0
2104333.0
2104311.0
2104433.0
2104429.0
2104307.0
2104337.0
2104419.0
2104231.0
2103824.0
2102034.0
2101917.0
2102234.0
2103598.0
2121464.0
2116964.0
2109928.0
2114115.0
2122885.0
2118500.0
2113012.0
2111629.0
2099333.0
2095882.0
2094884.0
2092932.0
2093067.0
2093823.0
2094447.0
2094817.0
2095011.0
2093763.0
2086305.0
2086395.0
2104643.0
2100538.0
2100503.0
2100410.0
2100527.0
2100444.0
2100268.0
2100285.0
2100329.0
2100275.0
2100259.0
2100312.0
2100209.0
2100356.0
2100369.0
2100279.0
2100471.0
2100263.0
2100347.0
2100198.0
2100288.0
2100266.0
2100266.0
2100320.0
2100340.0
2100360.0
2100326.0
2100276.0
2100282.0
2100332.0
2100253.0
2100271.0
2100231.0
2100343.0
2100247.0
2100305.0
2100260.0
2100300.0
2100330.0
2100281.0
2100293.0
2100280.0
2100236.0
2100259.0
2100324.0
2100467.0
2100493.0
2100307.0
2100310.0
2100242.0
2100296.0
2100364.0
2100255.0
2100229.0
2100513.0
2100258.0
2100450.0
2100426.0
2100541.0
2100524.0
2100325.0
2100297.0
2100227.0
2100320.0
2100208.0
2100311.0
2100305.0
2100304.0
2100224.0
2100497.0
2100312.0
2100289.0
2100309.0
2100291.0
2100489.0
2100427.0
2100389.0
2100316.0
2100312.0
2100422.0
2100445.0
2100409.0
2100344.0
2100230.0
2100309.0
2100300.0
2100451.0
2100416.0
2100498.0
2100302.0
2100287.0
2100301.0
2100398.0
2100255.0
2100334.0
2100331.0
2100436.0
2100486.0
2100472.0
2100446.0
2100567.0
2100414.0
2100272.0
2100271.0
2100258.0
2100318.0
2100215.0
2100338.0
2100253.0
2100318.0
2100332.0
2100203.0
2100348.0
2100282.0
2100337.0
2100352.0
2100486.0
2100473.0
2100500.0
2100313.0
2100444.0
2100465.0
2100539.0
2100503.0
2100328.0
2100357.0
2100308.0
2100412.0
2100263.0
2100217.0
2100303.0
2100330.0
2100328.0
2100483.0
2100488.0
2100462.0
2100500.0
2100330.0
2100293.0
2100290.0
2100398.0
2100263.0
2100274.0
2100285.0
2100344.0
2100231.0
2100281.0
2100454.0
2100334.0
2100384.0
2100270.0
2100241.0
2100246.0
2100242.0
2100260.0
2100303.0
2100239.0
2100242.0
2100225.0
2100243.0
2100295.0
2100352.0
2100237.0
2100441.0
2100218.0
2100313.0
2100297.0
2100285.0
2100480.0
2100393.0
2100221.0
2100271.0
2100281.0
2100303.0
2100310.0
2100282.0
2100300.0
2100271.0
2100277.0
2100309.0
2100251.0
2100307.0
2100324.0
2100311.0
2100451.0
2100316.0
2100239.0
2100225.0
2100322.0
2100251.0
2100285.0
2100265.0
2100405.0
2100292.0
2100492.0
2100327.0
2100494.0
2100353.0
2100391.0
2100381.0
2100341.0
2100356.0
2100393.0
2100414.0
2100233.0
2100420.0
2100355.0
2100314.0
2100310.0
2100555.0
2100565.0
2100521.0
2100196.0
2100279.0
2100282.0
2100245.0
2100245.0
2100324.0
2100265.0
2100316.0
2100288.0
2100276.0
2100263.0
2100407.0
2100448.0
2100266.0
2100294.0
2100445.0
2100428.0
2100262.0
2100257.0
2100397.0
2100258.0
2100224.0
2100219.0
2100274.0
2100277.0
2100322.0
2100511.0
2100452.0
2100355.0
2100235.0
2100443.0
2100517.0
2100453.0
2100224.0
2100474.0
2100254.0
2100407.0
2100294.0
2100286.0
2100248.0
2100296.0
2100326.0
2100360.0
2100172.0
2100273.0
2100465.0
2100284.0
2100444.0
2100438.0
2100364.0
2100241.0
2100278.0
2100316.0
2100255.0
2100293.0
2100315.0
2100379.0
2100434.0
2100276.0
2100294.0
2100262.0
2100232.0
2100293.0
2100429.0
2100422.0
2100424.0
2100294.0
2100247.0
2100368.0
2100254.0
2100270.0
2100314.0
2100346.0
2100295.0
2100422.0
2100301.0
2100305.0
2100254.0
2100225.0
2100296.0
2100266.0
2100320.0
2100368.0
2100359.0
2100170.0
2100223.0
2100256.0
2100244.0
2100298.0
2100444.0
2100392.0
2100413.0
2100380.0
2100461.0
2100233.0
2100206.0
2100281.0
2100134.0
2100320.0
2100248.0
2100336.0
2100468.0
2100416.0
2100243.0
2100281.0
2100255.0
2100443.0
2100434.0
2100257.0
2100272.0
2100175.0
2100215.0
2100240.0
2100180.0
2100286.0
2100306.0
2100290.0
2100179.0
2100206.0
2100403.0
2100219.0
2100314.0
2100390.0
2100262.0
2100418.0
2100260.0
2100252.0
2100402.0
2100229.0
2100237.0
2100351.0
2100261.0
2100154.0
2100227.0
2100356.0
2100378.0
2100277.0
2100265.0
2100408.0
2100257.0
2100294.0
2100418.0
2100330.0
2100330.0
2100429.0
2100236.0
2100431.0
2100300.0
2100353.0
2100218.0
2100270.0
2100205.0
2100383.0
2100459.0
2100463.0
2100315.0
2100214.0
2100228.0
2100308.0
2100367.0
2100197.0
2100238.0
2100371.0
2100407.0
2100205.0
2100450.0
2100281.0
2100198.0
2100204.0
2100210.0
2100370.0
2100207.0
2100245.0
2100275.0
2100416.0
2100306.0
2100150.0
2100284.0
2100219.0
2100495.0
2100403.0
2100215.0
2100304.0
2100259.0
2100351.0
2100253.0
2100274.0
2100248.0
2100245.0
2100201.0
2100354.0
2100293.0
2100358.0
2100281.0
2100222.0
2100276.0
2100273.0
2100427.0
2100173.0
2100371.0
2100435.0
2100290.0
2100295.0
2100262.0
2100273.0
2100154.0
2100251.0
2100385.0
2100268.0
2100276.0
2100295.0
2100319.0
2100267.0
2100254.0
2100277.0
2100321.0
2100208.0
2100364.0
2100300.0
2100291.0
2100357.0
2100461.0
2100271.0
2100291.0
2100294.0
2100269.0
2100410.0
2100230.0
2100198.0
2100465.0
2100232.0
2100419.0
2100210.0
2100271.0
2100419.0
2100302.0
2100251.0
2100231.0
2100410.0
2100243.0
2100227.0
2100332.0
2100471.0
2100216.0
2100178.0
2100410.0
2100248.0
2100250.0
2100261.0
2100246.0
2100396.0
2100236.0
2100165.0
2100357.0
2100427.0
2100214.0
2100267.0
2100254.0
2100205.0
2100376.0
2100236.0
2100391.0
2100391.0
2100265.0
2100226.0
2100335.0
2100380.0
2100497.0
2100456.0
2100201.0
2100283.0
2100228.0
2100227.0
2100462.0
2100254.0
2100261.0
2100268.0
2100225.0
2100173.0
2100254.0
2100438.0
2100458.0
2100249.0
2100263.0
2100258.0
2100313.0
2100357.0
2100193.0
2100352.0
2100236.0
2100235.0
2100277.0
2100432.0
2100231.0
2100237.0
2100224.0
2100283.0
2100384.0
2100484.0
2100241.0
2100400.0
2100408.0
2100408.0
2100260.0
2100281.0
2100277.0
2100232.0
2100256.0
2100249.0
2100182.0
2100237.0
2100369.0
2100229.0
2100474.0
2100210.0
2100390.0
2100174.0
2100256.0
2100245.0
2100239.0
2100170.0
2100137.0
2100176.0
2100234.0
2100212.0
2100245.0
2100231.0
2100206.0
2100419.0
2100247.0
2100201.0
2100193.0
2100172.0
2100215.0
2100225.0
2100235.0
2100425.0
2100196.0
2100293.0
2100392.0
2100485.0
2100443.0
2100316.0
2100440.0
2100393.0
2100441.0
2100297.0
2100366.0
2100259.0
2100346.0
2100419.0
2100250.0
2100232.0
2100203.0
2100450.0
2100153.0
2100182.0
2100345.0
2100189.0
2100332.0
2100225.0
2100477.0
2100468.0
2100275.0
2100227.0
2100352.0
2100225.0
2100253.0
2100155.0
2100328.0
2100251.0
2100163.0
2100221.0
2100260.0
2100173.0
2100220.0
2100174.0
2100246.0
2100420.0
2100361.0
2100211.0
2100201.0
2100250.0
2100338.0
2100412.0
2100347.0
2100168.0
2100242.0
2100499.0
2100354.0
2100391.0
2100212.0
2100283.0
2100329.0
2100279.0
2100473.0
2100423.0
2100234.0
2100222.0
2100111.0
2100256.0
2100348.0
2100244.0
2100337.0
2100386.0
2100423.0
2100242.0
2100204.0
2100213.0
2100392.0
2100335.0
2100496.0
2100360.0
2100386.0
2100187.0
2100144.0
2100212.0
2100403.0
2100366.0
2100251.0
2100253.0
2100481.0
2100214.0
2100244.0
2100324.0
2100421.0
2100204.0
2100206.0
2100302.0
2100522.0
2100169.0
2100264.0
2100221.0
2100420.0
2100202.0
2100258.0
2100162.0
2100414.0
2100317.0
2100181.0
2100235.0
2100149.0
2100206.0
2100363.0
2100405.0
2100432.0
2100389.0
2100197.0
2100213.0
2100260.0
2100208.0
2100226.0
2100215.0
2100206.0
2100242.0
2100185.0
2100418.0
2100384.0
2100331.0
2100375.0
2100205.0
2100212.0
2100257.0
2100250.0
2100417.0
2100171.0
2100254.0
2100200.0
2100467.0
2100148.0
2100212.0
2100271.0
2100344.0
2100400.0
2100137.0
2100080.0
2100330.0
2100384.0
2100357.0
2100324.0
2100192.0
2100227.0
2100296.0
2100513.0
2100389.0
2100155.0
2100219.0
2100168.0
2100222.0
2100416.0
2100400.0
2100198.0
2100251.0
2100398.0
2100246.0
2100430.0
2100230.0
2100260.0
2100224.0
2100458.0
2100218.0
2100316.0
2100214.0
2100167.0
2100242.0
2100258.0
2100471.0
2100348.0
2100252.0
2100252.0
2100273.0
2100451.0
2100360.0
2100303.0
2100303.0
2100408.0
2100233.0
2100445.0
2100399.0
2100378.0
2100409.0
2100307.0
2100374.0
2100190.0
2100353.0
2100205.0
2100328.0
2100213.0
2100373.0
2100173.0
2100234.0
2100327.0
2100412.0
2100341.0
2100243.0
2100190.0
2100239.0
2100207.0
2100178.0
2100259.0
2100227.0
2100278.0
2100442.0
2100282.0
2100415.0
2100227.0
2100226.0
2100239.0
2100381.0
2100225.0
2100239.0
2100479.0
2100241.0
2100200.0
2100257.0
2100181.0
2100384.0
2100209.0
2100287.0
2100255.0
2100283.0
2100309.0
2100359.0
2100239.0
2100241.0
2100299.0
2100243.0
2100475.0
2100188.0
2100373.0
2100201.0
2100218.0
2100205.0
2100254.0
2100269.0
2100200.0
2100203.0
2100175.0
2100222.0
2100159.0
2100263.0
2100416.0
2100386.0
2100341.0
2100229.0
2100238.0
2100189.0
2100241.0
2100228.0
2100287.0
2100425.0
2100354.0
2100202.0
2100208.0
2100337.0
2100473.0
2100162.0
2100267.0
2100150.0
2100165.0
2100219.0
2100393.0
2100385.0
2100420.0
2100411.0
2100292.0
2100144.0
2100185.0
2100250.0
2100332.0
2100372.0
2100191.0
2100233.0
2100240.0
2100237.0
2100448.0
2100337.0
2100177.0
2100226.0
2100232.0
2100260.0
2100362.0
2100425.0
2100396.0
2100381.0
2100424.0
2100391.0
2100219.0
2100171.0
2100270.0
2100234.0
2100250.0
2100171.0
2100237.0
2100396.0
2100450.0
2100231.0
2100444.0
2100396.0
2100378.0
2100271.0
2100196.0
2100228.0
2100209.0
2100222.0
2100258.0
2100243.0
2100308.0
2100407.0
2100123.0
2100231.0
2100253.0
2100193.0
2100172.0
2100270.0
2100223.0
2100170.0
2100203.0
2100271.0
2100166.0
2100273.0
2100424.0
2100383.0
2100328.0
2100447.0
2100260.0
2100208.0
2100175.0
2100205.0
2100239.0
2100351.0
2100226.0
2100214.0
2100260.0
2100247.0
2100203.0
2100318.0
2100317.0
2100366.0
2100359.0
2100398.0
2100176.0
2100378.0
2100333.0
2100348.0
2100217.0
2100259.0
2100275.0
2100225.0
2100384.0
2100275.0
2100156.0
2100232.0
2100324.0
2100286.0
2100366.0
2100246.0
2100421.0
2100260.0
2100254.0
2100263.0
2100184.0
2100217.0
2100267.0
2100161.0
2100265.0
2100270.0
2100284.0
2100422.0
2100417.0
2100372.0
2100419.0
2100474.0
2100389.0
2100335.0
2100409.0
2100221.0
2100490.0
2100160.0
2100211.0
2100116.0
2100223.0
2100269.0
2100213.0
2100289.0
2109539.0
2116767.0
2164513.0
2215029.0
2131544.0
2100048.0
2099512.0
2085211.0
2085444.0
2183225.0
3444171.0
4106864.0
4056330.0
3900458.0
2892309.0
2398173.0
2262294.0
3957031.0
4028890.0
4034449.0
4051045.0
4098606.0
4056616.0
4014059.0
4033690.0
4064447.0
4096286.0
4110435.0
3931250.0
3925235.0
3865239.0
3798866.0
3722925.0
3677602.0
3581613.0
3496453.0
3570057.0
3802990.0
4008754.0
3930120.0
4139892.0
4174785.0
4173216.0
4122927.0
4093933.0
3491053.0
2944938.0
3220238.0
3479484.0
3606846.0
3729076.0
3664681.0
3530824.0
3306563.0
3239315.0
3065385.0
3374015.0
4140667.0
4115949.0
4010633.0
3920872.0
3897015.0
3965734.0
4038999.0
4055840.0
3994146.0
4039558.0
4146894.0
3941473.0
4010160.0
4146943.0
4163862.0
4176604.0
4187723.0
4190625.0
4193283.0
4192958.0
4176855.0
4153350.0
4158621.0
4066610.0
4086995.0
4119741.0
4177525.0
4186557.0
4186983.0
4104138.0
3769162.0
3423054.0
3833264.0
3595985.0
3666303.0
3708869.0
3909647.0
4185116.0
4186556.0
3868973.0
3926153.0
3805282.0
4056581.0
4080891.0
4148118.0
4184980.0
4148842.0
4174851.0
4167516.0
4166284.0
4162864.0
4165576.0
4165053.0
4164818.0
4169304.0
4169193.0
4171764.0
4175472.0
4172407.0
4169711.0
4164277.0
4169807.0
4166798.0
4162161.0
4149183.0
4148677.0
4152040.0
4147201.0
4143237.0
4143200.0
4146284.0
4130653.0
4136189.0
4134512.0
4161875.0
4145602.0
3386498.0
3646620.0
3886560.0
3972967.0
4052919.0
3833820.0
3893566.0
3901179.0
3964118.0
4048340.0
4193882.0
4193722.0
4193663.0
4193686.0
4193782.0
4193525.0
4193023.0
4189540.0
4080794.0
3790427.0
4165040.0
3962253.0
3951274.0
3950311.0
3902558.0
3911218.0
3925655.0
3945635.0
3954616.0
3982453.0
4020716.0
4070111.0
4091124.0
4106667.0
4115012.0
4128482.0
4136335.0
4114745.0
4101636.0
4106847.0
4103176.0
4096705.0
4090581.0
4107709.0
4140665.0
4166487.0
4178896.0
4185070.0
4175048.0
4163705.0
4160064.0
4162628.0
4171066.0
4174790.0
4178804.0
4176778.0
4171991.0
4176902.0
4170259.0
4161028.0
4161521.0
4165606.0
4159730.0
4153574.0
4165650.0
4173782.0
4193526.0
4193977.0
4194003.0
4193989.0
4194035.0
4194004.0
4194021.0
4194013.0
4193994.0
4193746.0
4193874.0
4193930.0
4193844.0
4193873.0
4194030.0
4193951.0
4193766.0
4193617.0
4193686.0
4193551.0
4193426.0
4193157.0
4193134.0
4193361.0
4193390.0
4193436.0
4193456.0
4193374.0
4193521.0
4193680.0
4193673.0
4193665.0
4193655.0
4193618.0
4193565.0
4193680.0
4193680.0
4193644.0
4193659.0
4193621.0
4193552.0
4193647.0
4193676.0
4193642.0
4193596.0
4193646.0
4193705.0
4193709.0
4193779.0
4193788.0
4193773.0
4193803.0
4193825.0
2580578.0
2578980.0
2576956.0
2575291.0
2573702.0
2572153.0
2570499.0
2568401.0
2308014.0
2304374.0
2301181.0
2298206.0
2295393.0
2106200.0
2115162.0
2118307.0
2118944.0
2117326.0
2069284.0
2068061.0
2064777.0
2063162.0
2057699.0
2054751.0
2053165.0
2046467.0
2037431.0
2031881.0
2029817.0
2026129.0
2018347.0
2013306.0
2007839.0
1996898.0
1981447.0
1965418.0
1953805.0
1947040.0
1940165.0
1933208.0
1930334.0
1931175.0
1937899.0
1946579.0
1946027.0
1944233.0
1942794.0
1943271.0
1946817.0
1950346.0
1954208.0
1954745.0
1956515.0
1958737.0
1951729.0
1938560.0
1928725.0
1919425.0
1916135.0
1913354.0
1909321.0
1911610.0
1912465.0
1909942.0
1904652.0
1896935.0
1885722.0
1875137.0
1867194.0
1863211.0
1860705.0
1863647.0
1873965.0
1877825.0
1877498.0
1873979.0
1867695.0
1854629.0
1841678.0
1836130.0
1835573.0
1835193.0
1830442.0
1828074.0
1824430.0
1823645.0
1821936.0
1841481.0
1851049.0
1844701.0
1830250.0
1818274.0
1809002.0
1800710.0
1793475.0
1788105.0
1788888.0
1793746.0
1799056.0
1805693.0
1804466.0
1800909.0
1795952.0
1790842.0
1789584.0
1790561.0
1795086.0
1797937.0
1792756.0
1783212.0
1771753.0
1758295.0
1749500.0
1745494.0
1752934.0
1761569.0
1762044.0
1757161.0
1753988.0
1754132.0
1755430.0
1758395.0
1760363.0
1757718.0
1755622.0
1750632.0
1745819.0
1747151.0
1749301.0
1746338.0
1743854.0
1739673.0
1736226.0
1735834.0
1737631.0
1746268.0
1761972.0
1780887.0
1796641.0
1813077.0
1824723.0
1825857.0
1819697.0
1812522.0
1804075.0
1792599.0
1774200.0
1771437.0
1789907.0
1829765.0
1858272.0
1870860.0
1852214.0
1855318.0
1855245.0
1868997.0
1863389.0
1881546.0
1886555.0
1879004.0
1887632.0
1904760.0
1914851.0
1919252.0
1922973.0
1930899.0
1940241.0
1939606.0
1931854.0
1935531.0
1961987.0
2001158.0
2006973.0
1978018.0
1962680.0
1950330.0
1943846.0
1937371.0
1933134.0
1933328.0
1931899.0
1933891.0
1942995.0
1954210.0
1962133.0
1969979.0
1979781.0
1971108.0
1962001.0
1966187.0
1960701.0
1960099.0
1967921.0
1980349.0
1993169.0
2005348.0
2011808.0
2017693.0
2019819.0
2026186.0
2039160.0
2051655.0
2049183.0
2038604.0
2038084.0
2044395.0
2048686.0
2052184.0
2049805.0
2044443.0
2041023.0
2038815.0
2034819.0
2025597.0
2015908.0
2013553.0
2019543.0
2024966.0
2018623.0
2017517.0
2024837.0
2029067.0
2025751.0
2021698.0
2016145.0
2008924.0
2002645.0
1997604.0
1991919.0
1989611.0
1995166.0
2006080.0
2012389.0
2008021.0
2007007.0
2003910.0
1996565.0
1987046.0
1980274.0
1978526.0
1978615.0
1978032.0
1977051.0
1975474.0
1972804.0
1975157.0
1979882.0
1983531.0
1978871.0
1971878.0
1973049.0
1978086.0
1978882.0
1976494.0
1975153.0
1971933.0
1969162.0
1968111.0
1966244.0
1963374.0
1960139.0
1964687.0
1969125.0
1966752.0
1957475.0
1941220.0
1955242.0
1964957.0
1971910.0
1945214.0
1927895.0
1919818.0
1912553.0
1909074.0
1910484.0
1921933.0
1942856.0
1965449.0
1962567.0
1941421.0
1943470.0
1946516.0
1948759.0
1951589.0
1954786.0
1960447.0
1965014.0
1963828.0
1962425.0
1960910.0
1961944.0
1967313.0
1978242.0
1977355.0
1967473.0
1967645.0
1978893.0
1986189.0
1984961.0
1982791.0
1978765.0
1974326.0
1967413.0
1958965.0
1949423.0
1942510.0
1941078.0
1950236.0
1962888.0
1962575.0
1956710.0
1962848.0
1972339.0
1972216.0
1963280.0
1955698.0
1950366.0
1946455.0
1946060.0
1950035.0
1952368.0
1951152.0
1962471.0
1969426.0
1960565.0
1945124.0
1936788.0
1941222.0
1946876.0
1950277.0
1951238.0
1952408.0
1953790.0
1953818.0
1953149.0
1949130.0
1948163.0
1957875.0
1960646.0
1951240.0
1943427.0
1943405.0
1947919.0
1938947.0
1930186.0
1922716.0
1916464.0
1912386.0
1909098.0
1902652.0
1902802.0
1910781.0
1936613.0
1952783.0
1942167.0
1941980.0
1955277.0
1964460.0
1963078.0
1957328.0
1950323.0
1943164.0
1939514.0
1938034.0
1937202.0
1935648.0
1935678.0
1948379.0
1958543.0
1949597.0
1937962.0
1934580.0
1938556.0
1942244.0
1949348.0
1954211.0
1955860.0
1955649.0
1953291.0
1946518.0
1938516.0
1934532.0
1949369.0
1968381.0
1966897.0
1962565.0
1964556.0
1975574.0
1986686.0
1987031.0
1978625.0
1966100.0
1955003.0
1946135.0
1940994.0
1936914.0
1934684.0
1936486.0
1944189.0
1950886.0
1942266.0
1934894.0
1933668.0
1930159.0
1924188.0
1919013.0
1915911.0
1914153.0
1913098.0
1914305.0
1913670.0
1909667.0
1909117.0
1920519.0
1926457.0
1919399.0
1921751.0
1926478.0
1930988.0
1932936.0
1929226.0
1925661.0
1920572.0
1913197.0
1908551.0
1906085.0
1910905.0
1926791.0
1943947.0
1957014.0
1952632.0
1955674.0
1969849.0
1981084.0
1979064.0
1969952.0
1964656.0
1962917.0
1961685.0
1961651.0
1961167.0
1959615.0
1962324.0
1972283.0
1984825.0
1981683.0
1978926.0
1979769.0
1985791.0
1989497.0
1990444.0
1990623.0
1988351.0
1983840.0
1980340.0
1974886.0
1968970.0
1973174.0
1985479.0
1983595.0
1973136.0
1974387.0
1982954.0
1994984.0
1998648.0
1989534.0
1980097.0
1975025.0
1970745.0
1971095.0
1970517.0
1971373.0
1980403.0
1995270.0
1997396.0
1989073.0
1983355.0
1986124.0
1992079.0
1993341.0
1993831.0
1991391.0
1987087.0
1984649.0
1982803.0
1978681.0
1971895.0
1968485.0
1986117.0
2001200.0
1997382.0
1992481.0
1991342.0
1993720.0
1996586.0
1999777.0
2000085.0
1997315.0
1993113.0
1992055.0
1992108.0
1994365.0
1998059.0
2013583.0
2031594.0
2039453.0
2029807.0
2032413.0
2040831.0
2050575.0
2055184.0
2054063.0
2053848.0
2052686.0
2051789.0
2051982.0
2048858.0
2045882.0
2045398.0
2049281.0
2052711.0
2042129.0
2043714.0
2058743.0
2076291.0
2091345.0
2093262.0
2086994.0
2077431.0
2069494.0
2063355.0
2061385.0
2060592.0
2065214.0
2082028.0
2091134.0
2088184.0
2101228.0
2116250.0
2131128.0
2134189.0
2132802.0
2140613.0
2151192.0
2158495.0
2159980.0
2159010.0
2151620.0
2139541.0
2145632.0
2157919.0
2164907.0
2175446.0
2185900.0
2195713.0
2199056.0
2198003.0
2195717.0
2200673.0
2212002.0
2220976.0
2232397.0
2240613.0
2248563.0
2253699.0
2249374.0
2246570.0
2239198.0
2239272.0
2237442.0
2246207.0
2249511.0
2239777.0
2205525.0
2188700.0
2164526.0
2153583.0
2139601.0
2140548.0
2133385.0
2191612.0
2289825.0
2356142.0
2409072.0
2445562.0
2437226.0
2406104.0
2341804.0
2288516.0
2241583.0
2210115.0
2189679.0
2176509.0
2159862.0
2153059.0
2151077.0
2150427.0
2146046.0
2140160.0
2134882.0
2126765.0
2113021.0
2103308.0
2088191.0
2073760.0
2063332.0
2054144.0
2047118.0
2038135.0
2026615.0
2010692.0
1996929.0
1984269.0
1977905.0
1973945.0
1969140.0
1967539.0
1974146.0
1993591.0
2013997.0
2031265.0
2076676.0
2143975.0
2187369.0
2207059.0
2219458.0
2220667.0
2214312.0
2206775.0
2197371.0
2184216.0
2167125.0
2154678.0
2145164.0
2137701.0
2133725.0
2132428.0
2129517.0
2124959.0
2121992.0
2117193.0
2109257.0
2100058.0
2092717.0
2087491.0
2083680.0
2080773.0
2079531.0
2076323.0
2074722.0
2072085.0
2067208.0
2059982.0
2054216.0
2049440.0
2047534.0
2046339.0
2045603.0
2044728.0
2044351.0
2043122.0
2038790.0
2033615.0
2029441.0
2027075.0
2025325.0
2024316.0
2023855.0
2023269.0
2023062.0
2022600.0
2019984.0
2015561.0
2011533.0
2009166.0
2008732.0
2009239.0
2009386.0
2008422.0
2009000.0
2008996.0
2005537.0
2001123.0
1996802.0
1993865.0
1992773.0
1992691.0
1992956.0
1994480.0
1994281.0
1994683.0
1995109.0
1991775.0
1989225.0
1986511.0
1985152.0
1983001.0
1982408.0
1981642.0
1981708.0
1982185.0
1975055.0
1975055.0
1971542.0
1968023.0
1966415.0
1966422.0
1966422.0
1968359.0
1970586.0
1975320.0
2001616.0
2072785.0
2213783.0
2422375.0
2611847.0
2727120.0
2824303.0
2891630.0
2951278.0
3003030.0
3050559.0
3084719.0
3095635.0
3083721.0
3056702.0
3002352.0
2982646.0
2964934.0
2941429.0
2912953.0
2878851.0
2861065.0
2836267.0
2814953.0
2807843.0
2798909.0
2793325.0
2791184.0
2791083.0
2791382.0
2787342.0
2780147.0
2775931.0
2769561.0
2763870.0
2758004.0
2748819.0
2739049.0
2727975.0
2715354.0
2688240.0
2678545.0
2659585.0
2652465.0
2640302.0
2629631.0
2620713.0
2620991.0
2621582.0
2614729.0
2610728.0
2603802.0
2617289.0
2648871.0
2680856.0
2711774.0
2728006.0
2749262.0
2796785.0
2800216.0
2800748.0
2800123.0
2811102.0
2832661.0
2828812.0
2853240.0
2873498.0
2872692.0
2852138.0
2821548.0
2785870.0
2754626.0
2729879.0
2722623.0
2713515.0
2707896.0
2698290.0
2687143.0
2680081.0
2669709.0
2652572.0
2633044.0
2619815.0
2610451.0
2603350.0
2595566.0
2589736.0
2581018.0
2572434.0
2557776.0
2538665.0
2519230.0
2507592.0
2499859.0
2489829.0
2481333.0
2470486.0
2457214.0
2449006.0
2444022.0
2434959.0
2428781.0
2433281.0
2440806.0
2438773.0
2432958.0
2426328.0
2428608.0
2423889.0
2401578.0
2376789.0
2351230.0
2329184.0
2322494.0
2328350.0
2339039.0
2354649.0
2362436.0
2367862.0
2371433.0
2375157.0
2393764.0
2415127.0
2420733.0
2427057.0
2450683.0
2471378.0
2486900.0
2503854.0
2525487.0
2532523.0
2534662.0
2542942.0
2549560.0
2552371.0
2552964.0
2557051.0
2559359.0
2555526.0
2548596.0
2551864.0
2552939.0
2567280.0
2564985.0
2577247.0
2575860.0
2580536.0
2591811.0
2608048.0
2578026.0
2552125.0
2549399.0
2545139.0
2547135.0
2555864.0
2563318.0
2571849.0
2607685.0
2634764.0
2653500.0
2683732.0
2714133.0
2738476.0
2744621.0
2741379.0
2733167.0
2707947.0
2698093.0
2680065.0
2651910.0
2630233.0
2610430.0
2589834.0
2575531.0
2557886.0
2538998.0
2519634.0
2499413.0
2470657.0
2436031.0
2402593.0
2371667.0
2346367.0
2325733.0
2307255.0
2289684.0
2276952.0
2261093.0
2238689.0
2217055.0
2200019.0
2188116.0
2177943.0
2163118.0
2151138.0
2142798.0
2136189.0
2125521.0
2106604.0
2086931.0
2069075.0
2056370.0
2051711.0
2048712.0
2044853.0
2039928.0
2036391.0
2029543.0
2014446.0
2002611.0
1994027.0
1990210.0
1989236.0
1987546.0
1985936.0
1987950.0
1989577.0
1984859.0
1975898.0
1969523.0
1968815.0
1973609.0
1983186.0
1993320.0
1996702.0
1992623.0
1991271.0
1987441.0
1982807.0
1979305.0
1978529.0
1983304.0
1987299.0
1991345.0
1994397.0
1997181.0
2000211.0
1998457.0
1993186.0
1989768.0
1990049.0
1994602.0
1998550.0
2002325.0
2003672.0
2006419.0
2008298.0
2005648.0
2000315.0
1997094.0
1998829.0
2003379.0
2006289.0
2009602.0
2012033.0
2015261.0
2014674.0
2009061.0
2005868.0
2004817.0
2006730.0
2011231.0
2015260.0
2018000.0
2020710.0
2023465.0
2022557.0
2019424.0
2015630.0
2016765.0
2019699.0
2024079.0
2026479.0
2029496.0
2031946.0
2034057.0
2034088.0
2030785.0
2028879.0
2030419.0
2032575.0
2036367.0
2039860.0
2042600.0
2045229.0
2047320.0
2046571.0
2045408.0
2044509.0
2046796.0
2049325.0
2053227.0
2056496.0
2059583.0
2062454.0
2063700.0
2062719.0
2061054.0
2059788.0
2062799.0
2065873.0
2070244.0
2072604.0
2074425.0
2077263.0
2078628.0
2078389.0
2076599.0
2078065.0
2079647.0
2083037.0
2086370.0
2088875.0
2091286.0
2093393.0
2094109.0
2093074.0
2092012.0
2092006.0
2093547.0
2096303.0
2098739.0
2100857.0
2102898.0
2104634.0
2103492.0
2101620.0
2100414.0
2101379.0
2103519.0
2104953.0
2107052.0
2108639.0
2110141.0
2110661.0
2107730.0
2105074.0
2103884.0
2103660.0
2105658.0
2107570.0
2109027.0
2110792.0
2111478.0
2109950.0
2105874.0
2102504.0
2101333.0
2101984.0
2102493.0
2103250.0
2103786.0
2104269.0
2104267.0
2102439.0
2096608.0
2093294.0
2092516.0
2093407.0
2095669.0
2095934.0
2095962.0
2094867.0
2093632.0
2088198.0
2082769.0
2079367.0
2078517.0
2079008.0
2079448.0
2079049.0
2077844.0
2076888.0
2074289.0
2068870.0
2063757.0
2060988.0
2060296.0
2060588.0
2060711.0
2060196.0
2058945.0
2057501.0
2054078.0
2047857.0
2043747.0
2040720.0
2038766.0
2038931.0
2038867.0
2037972.0
2037904.0
2036281.0
2031463.0
2025419.0
2020943.0
2018054.0
2018090.0
2018143.0
2017423.0
2016362.0
2015936.0
2012492.0
2007425.0
1999708.0
1995772.0
1994613.0
1994622.0
1994468.0
1993306.0
1993048.0
1991343.0
1987241.0
1980177.0
1972949.0
1970209.0
1971237.0
1971666.0
1971036.0
1969493.0
1967005.0
1964926.0
1959454.0
1951408.0
1947032.0
1945404.0
1945194.0
1945173.0
1944139.0
1942813.0
1941552.0
1938198.0
1931947.0
1926739.0
1923483.0
1923774.0
1924057.0
1923924.0
1923052.0
1922900.0
1921217.0
1915435.0
1909220.0
1905564.0
1905408.0
1905865.0
1906134.0
1904545.0
1903655.0
1902775.0
1900471.0
1895207.0
1890683.0
1889492.0
1889465.0
1890700.0
1890994.0
1890521.0
1889801.0
1888929.0
1885337.0
1879431.0
1877209.0
1876638.0
1876785.0
1878008.0
1878247.0
1877515.0
1876066.0
1874574.0
1870620.0
1867118.0
1864819.0
1864408.0
1865625.0
1866578.0
1865293.0
1864857.0
1864173.0
1861050.0
1856389.0
1854009.0
1853131.0
1853310.0
1853345.0
1853116.0
1852400.0
1852120.0
1850300.0
1845567.0
1842033.0
1839935.0
1839921.0
1840599.0
1840724.0
1840033.0
1839156.0
1837099.0
1833271.0
1828162.0
1825381.0
1823544.0
1823938.0
1825451.0
1824057.0
1823371.0
1822775.0
1820810.0
1817039.0
1812231.0
1809813.0
1809639.0
1808846.0
1809091.0
1808514.0
1807836.0
1807388.0
1804857.0
1801009.0
1796689.0
1795696.0
1796777.0
1797896.0
1799204.0
1797940.0
1798869.0
1798649.0
1794938.0
1790856.0
1788459.0
1788270.0
1789218.0
1790202.0
1790612.0
1790424.0
1790545.0
1790342.0
1787936.0
1784818.0
1783333.0
1783519.0
1784851.0
1785964.0
1786321.0
1786399.0
1786712.0
1786307.0
1783567.0
1781633.0
1780454.0
1780844.0
1781294.0
1782853.0
1783022.0
1782022.0
1782227.0
1781225.0
1777974.0
1775023.0
1774397.0
1775095.0
1776951.0
1777166.0
1777387.0
1777689.0
1778045.0
1775934.0
1773867.0
1771066.0
1770945.0
1772042.0
1773181.0
1774804.0
1774230.0
1775153.0
1774202.0
1772015.0
1768993.0
1767398.0
1767431.0
1768636.0
1770024.0
1770788.0
1771522.0
1771860.0
1770831.0
1768647.0
1765586.0
1764093.0
1764412.0
1765605.0
1766489.0
1767118.0
1767226.0
1767332.0
1766895.0
1764921.0
1762362.0
1761001.0
1761609.0
1762426.0
1763458.0
1763606.0
1763668.0
1764054.0
1763820.0
1761757.0
1760269.0
1758095.0
1758271.0
1759393.0
1759752.0
1760147.0
1760195.0
1760252.0
1758919.0
1755782.0
1753189.0
1752024.0
1752303.0
1752864.0
1753364.0
1753148.0
1752780.0
1751849.0
1749111.0
1745337.0
1742518.0
1741373.0
1741701.0
1742510.0
1742118.0
1740948.0
1740472.0
1738390.0
1733943.0
1728755.0
1726844.0
1725726.0
1724750.0
1724233.0
1723091.0
1721768.0
1720221.0
1716932.0
1712009.0
1709139.0
1705987.0
1705441.0
1705158.0
1705559.0
1704056.0
1701593.0
1700047.0
1695556.0
1691263.0
1686563.0
1684939.0
1685234.0
1685543.0
1683394.0
1681657.0
1680494.0
1679470.0
1674016.0
1669367.0
1664688.0
1662689.0
1662226.0
1662447.0
1658683.0
1656757.0
1653412.0
1648824.0
1641248.0
1625012.0
1609742.0
1594819.0
1585465.0
1573787.0
1600427.0
1698833.0
1789268.0
1876854.0
1945986.0
2005939.0
2064839.0
2094355.0
2143905.0
2167397.0
2183285.0
2230051.0
2285851.0
2320990.0
2342287.0
2389575.0
2473307.0
2557324.0
2610251.0
2672746.0
2651177.0
2596855.0
2580195.0
2579143.0
2587099.0
2595177.0
2605023.0
2624603.0
2637642.0
2632693.0
2623815.0
2607511.0
2591400.0
2571882.0
2554309.0
2551879.0
2557301.0
2559674.0
2549903.0
2551269.0
2554082.0
2551231.0
2552433.0
2554560.0
2554928.0
2559911.0
2567926.0
2584647.0
2609271.0
2636923.0
2661711.0
2679323.0
2700904.0
2725293.0
2746532.0
2773719.0
2806150.0
2827700.0
2837226.0
2857480.0
2867264.0
2879479.0
2891062.0
2882539.0
2857023.0
2826410.0
2802789.0
2794049.0
2786452.0
2778089.0
2768095.0
2762444.0
2772629.0
2774542.0
2772347.0
2761751.0
2750377.0
2731912.0
2713440.0
2699442.0
2693111.0
2692723.0
2695263.0
2689343.0
2684987.0
2664746.0
2637302.0
2623629.0
2606511.0
2597787.0
2608728.0
2635546.0
2665719.0
2677230.0
2660801.0
2621836.0
2621427.0
2604822.0
2612577.0
2626826.0
2633083.0
2630791.0
2626583.0
2623613.0
2593175.0
2567795.0
2548486.0
2532168.0
2520533.0
2507911.0
2495129.0
2483634.0
2472959.0
2461131.0
2444076.0
2424696.0
2408008.0
2395604.0
2388056.0
2380620.0
2371603.0
2363218.0
2352828.0
2344694.0
2329929.0
2312104.0
2295696.0
2284210.0
2277908.0
2272623.0
2265776.0
2258202.0
2251063.0
2245669.0
2232757.0
2215123.0
2200451.0
2190831.0
2186635.0
2183469.0
2179248.0
2174243.0
2167410.0
2163408.0
2150932.0
2135314.0
2123863.0
2115849.0
2114880.0
2112135.0
2109304.0
2105022.0
2101189.0
2098613.0
2090272.0
2077960.0
2066788.0
2062905.0
2062338.0
2062654.0
2060605.0
2058346.0
2056375.0
2055492.0
2051435.0
2042684.0
2032994.0
2029829.0
2030155.0
2032266.0
2033268.0
2032950.0
2032905.0
2033847.0
2033330.0
2026134.0
2019301.0
2015357.0
2014818.0
2018583.0
2020699.0
2020967.0
2021674.0
2022377.0
2023426.0
2019687.0
2011943.0
2008971.0
2007908.0
2010530.0
2013462.0
2015073.0
2015457.0
2015910.0
2017014.0
2013599.0
2006577.0
2002464.0
2001089.0
2004111.0
2007266.0
2008595.0
2008927.0
2009553.0
2010846.0
2007480.0
2000252.0
1995211.0
1994629.0
1996977.0
1999812.0
2001632.0
2001622.0
2002093.0
2003111.0
1999958.0
1993399.0
1989200.0
1988103.0
1990947.0
1995098.0
1996843.0
1997041.0
1996407.0
1997869.0
1995895.0
1990059.0
1985660.0
1985700.0
1988622.0
1991317.0
1994010.0
1994530.0
1995627.0
1997256.0
1996968.0
1992083.0
1985993.0
1984637.0
1986701.0
1989471.0
1991499.0
1993180.0
1993934.0
1994366.0
1995468.0
1991563.0
1987348.0
1983999.0
1985731.0
1989057.0
1990370.0
1990725.0
1990969.0
1993010.0
1994465.0
1991120.0
1980315.0
1967801.0
1960677.0
1958287.0
1957672.0
1957863.0
1953155.0
1945732.0
1943010.0
1935760.0
1933433.0
1934967.0
1942341.0
1950504.0
1959288.0
1963076.0
1963667.0
1964344.0
1964969.0
1958468.0
1950714.0
1943939.0
1939906.0
1939453.0
1940515.0
1939637.0
1937616.0
1934378.0
1933015.0
1928213.0
1919056.0
1913331.0
1913851.0
1917344.0
1917226.0
1915771.0
1909197.0
1900619.0
1893313.0
1886467.0
1876066.0
1864709.0
1861702.0
1861750.0
1862949.0
1860254.0
1856837.0
1852842.0
1848370.0
1843919.0
1834796.0
1827301.0
1826452.0
1830893.0
1836880.0
1840229.0
1841565.0
1843139.0
1844219.0
1843086.0
1836174.0
1830475.0
1828220.0
1828446.0
1830159.0
1831251.0
1831681.0
1831243.0
1831728.0
1829462.0
1822442.0
1815089.0
1810154.0
1810921.0
1812285.0
1814312.0
1814108.0
1813703.0
1813655.0
1814816.0
1812662.0
1805027.0
1797056.0
1794275.0
1797122.0
1797797.0
1798412.0
1799663.0
1794253.0
1794253.0
1786786.0
1774281.0
1748468.0
1739821.0
1734658.0
1732235.0
1730052.0
1726305.0
1722672.0
1721809.0
1721248.0
1716218.0
1708131.0
1699766.0
1696105.0
1695247.0
1695697.0
1694711.0
1692955.0
1692504.0
1692731.0
1692897.0
1691028.0
1687147.0
1684371.0
1684889.0
1687756.0
1691619.0
1696538.0
1699026.0
1701964.0
1704201.0
1706344.0
1703205.0
1697504.0
1694376.0
1695160.0
1697087.0
1699458.0
1701119.0
1701610.0
1701442.0
1701648.0
1703385.0
1702218.0
1697806.0
1692344.0
1690055.0
1692143.0
1694094.0
1694649.0
1694718.0
1695319.0
1693123.0
1691071.0
1689444.0
1682540.0
1674516.0
1669125.0
1665580.0
1662214.0
1660828.0
1656922.0
1652182.0
1649290.0
1645466.0
1641590.0
1635095.0
1629628.0
1627207.0
1627601.0
1627473.0
1626876.0
1626121.0
1627596.0
1629442.0
1629580.0
1629754.0
1626990.0
1625727.0
1628200.0
1632447.0
1635072.0
1636420.0
1635728.0
1636470.0
1638282.0
1637562.0
1634887.0
1631076.0
1629851.0
1630882.0
1633110.0
1635041.0
1635215.0
1635922.0
1636364.0
1636895.0
1633731.0
1629826.0
1627242.0
1626951.0
1627372.0
1628520.0
1629574.0
1631159.0
1630250.0
1629588.0
1629198.0
1627089.0
1625386.0
1622632.0
1620985.0
1619377.0
1616250.0
1609548.0
1600797.0
1593235.0
1586179.0
1578508.0
1570573.0
1564761.0
1562357.0
1560506.0
1559769.0
1558121.0
1556782.0
1555558.0
1554293.0
1552338.0
1547493.0
1540759.0
1534097.0
1530077.0
1529686.0
1532072.0
1536430.0
1539813.0
1544576.0
1551008.0
1550622.0
1545452.0
1540521.0
1538063.0
1537298.0
1537907.0
1538676.0
1538325.0
1536953.0
1535680.0
1534150.0
1531031.0
1525057.0
1522682.0
1522322.0
1523681.0
1524843.0
1527189.0
1529029.0
1530782.0
1531887.0
1529031.0
1523014.0
1517494.0
1516140.0
1518816.0
1520517.0
1522300.0
1520230.0
1512463.0
1505146.0
1497935.0
1489689.0
1481403.0
1473749.0
1470810.0
1469942.0
1469377.0
1468277.0
1465363.0
1463295.0
1462207.0
1457751.0
1451279.0
1445121.0
1441035.0
1437986.0
1434870.0
1432188.0
1429635.0
1430643.0
1432198.0
1433986.0
1433949.0
1430792.0
1427194.0
1429181.0
1429845.0
1429899.0
1429897.0
1428934.0
1428595.0
1428132.0
1427954.0
1427463.0
1426196.0
1424481.0
1424058.0
1425550.0
1426586.0
1427876.0
1429461.0
1431327.0
1431806.0
1432393.0
1432135.0
1431431.0
1429048.0
1430412.0
1432423.0
1434846.0
1434858.0
1433727.0
1433518.0
1433754.0
1435231.0
1431739.0
1425968.0
1421819.0
1419642.0
1419664.0
1417938.0
1415510.0
1414242.0
1413066.0
1409272.0
1401895.0
1393644.0
1385022.0
1379632.0
1374586.0
1371843.0
1371512.0
1371579.0
1371578.0
1371357.0
1373487.0
1374451.0
1375669.0
1377438.0
1378368.0
1379626.0
1378835.0
1375287.0
1372827.0
1371309.0
1370518.0
1367399.0
1363513.0
1361201.0
1361570.0
1361027.0
1361462.0
1361783.0
1362266.0
1363692.0
1364603.0
1366732.0
1365965.0
1365708.0
1365236.0
1366157.0
1368626.0
1368838.0
1368282.0
1367844.0
1367296.0
1369644.0
1367883.0
1365658.0
1364104.0
1365291.0
1370893.0
1372455.0
1368753.0
1364848.0
1363633.0
1362120.0
1359970.0
1359009.0
1363456.0
1369789.0
1376811.0
1382726.0
1390206.0
1397489.0
1403328.0
1406880.0
1408852.0
1408441.0
1403774.0
1408889.0
1416032.0
1428943.0
1452445.0
1473689.0
1473947.0
1461615.0
1453101.0
1446599.0
1438430.0
1429728.0
1422766.0
1417470.0
1413794.0
1411377.0
1409451.0
1408098.0
1406289.0
1405580.0
1403742.0
1401706.0
1398301.0
1395266.0
1394790.0
1394287.0
1393974.0
1393503.0
1392558.0
1391276.0
1389728.0
1387280.0
1383954.0
1381567.0
1379166.0
1377724.0
1374756.0
1370260.0
1367026.0
1360849.0
1355177.0
1351684.0
1349505.0
1345644.0
1340356.0
1338752.0
1339551.0
1337372.0
1335477.0
1332428.0
1329935.0
1329332.0
1335590.0
1335552.0
1338221.0
1340667.0
1348900.0
1361588.0
1373225.0
1381380.0
1383605.0
1380212.0
1375116.0
1373150.0
1372282.0
1368279.0
1363187.0
1357349.0
1356851.0
1358301.0
1365605.0
1377669.0
1401127.0
1407688.0
1404017.0
1412383.0
1410688.0
1406058.0
1404849.0
1407325.0
1408593.0
1408568.0
1408353.0
1409258.0
1411167.0
1411368.0
1409199.0
1403355.0
1397169.0
1392969.0
1392621.0
1397801.0
1397733.0
1393564.0
1391866.0
1392229.0
1390743.0
1392718.0
1389924.0
1386405.0
1384183.0
1384670.0
1386068.0
1386409.0
1386023.0
1383863.0
1381711.0
1380913.0
1381381.0
1378952.0
1373850.0
1373437.0
1375489.0
1377866.0
1379076.0
1379145.0
1377596.0
1377739.0
1377114.0
1375828.0
1370127.0
1365275.0
1361516.0
1360889.0
1361033.0
1360934.0
1361170.0
1361943.0
1363651.0
1364619.0
1365418.0
1363618.0
1360035.0
1357569.0
1356633.0
1356877.0
1357260.0
1356570.0
1356244.0
1355931.0
1355654.0
1355817.0
1353981.0
1351368.0
1348885.0
1348338.0
1348687.0
1348878.0
1349782.0
1349073.0
1349626.0
1348695.0
1348694.0
1349139.0
1345589.0
1343017.0
1341464.0
1341427.0
1340802.0
1341220.0
1341162.0
1340441.0
1339864.0
1340362.0
1338689.0
1337635.0
1334477.0
1332346.0
1332309.0
1331896.0
1331396.0
1331058.0
1330518.0
1330688.0
1329760.0
1328162.0
1326243.0
1324133.0
1321047.0
1320666.0
1320008.0
1319661.0
1319307.0
1318885.0
1319067.0
1317859.0
1316763.0
1315019.0
1312880.0
1310651.0
1309472.0
1309385.0
1310031.0
1310619.0
1310292.0
1309868.0
1309068.0
1308452.0
1306051.0
1304001.0
1302957.0
1302014.0
1301842.0
1301574.0
1301644.0
1301854.0
1301831.0
1301671.0
1302107.0
1300856.0
1298475.0
1298085.0
1297073.0
1297844.0
1299100.0
1300842.0
1300396.0
1299723.0
1299336.0
1298890.0
1297081.0
1295644.0
1295569.0
1294680.0
1293845.0
1294069.0
1294263.0
1294528.0
1294324.0
1293012.0
1292309.0
1292023.0
1289996.0
1288306.0
1288352.0
1288617.0
1288974.0
1288599.0
1288534.0
1286999.0
1286557.0
1284353.0
1281195.0
1279541.0
1279151.0
1280037.0
1279368.0
1279282.0
1278513.0
1277911.0
1277715.0
1275172.0
1273196.0
1270960.0
1270832.0
1270245.0
1270285.0
1271047.0
1271322.0
1271052.0
1270727.0
1270281.0
1269469.0
1267246.0
1264990.0
1264888.0
1265305.0
1266206.0
1265986.0
1265591.0
1265338.0
1265500.0
1264575.0
1262570.0
1260293.0
1258991.0
1259283.0
1258974.0
1260382.0
1260412.0
1260132.0
1259929.0
1258788.0
1257309.0
1255152.0
1253977.0
1252295.0
1253020.0
1255066.0
1255636.0
1254816.0
1254684.0
1254303.0
1254829.0
1252694.0
1250914.0
1249765.0
1250076.0
1251803.0
1252340.0
1253495.0
1253018.0
1252130.0
1251758.0
1251428.0
1249273.0
1247448.0
1246514.0
1246577.0
1247925.0
1248857.0
1249124.0
1248885.0
1248849.0
1249085.0
1246883.0
1244562.0
1242553.0
1244035.0
1244732.0
1246873.0
1246766.0
1246748.0
1246862.0
1247739.0
1245661.0
1244005.0
1242103.0
1241600.0
1241464.0
1243222.0
1242913.0
1243381.0
1243340.0
1243796.0
1242851.0
1241341.0
1239796.0
1237402.0
1237003.0
1238076.0
1239875.0
1241424.0
1243136.0
1244232.0
1244067.0
1244776.0
1245383.0
1243439.0
1242507.0
1242978.0
1244578.0
1247043.0
1246881.0
1246759.0
1246866.0
1247927.0
1247592.0
1246058.0
1244149.0
1243578.0
1243605.0
1245084.0
1246341.0
1246772.0
1246293.0
1246215.0
1246390.0
1246470.0
1244467.0
1242359.0
1241209.0
1241024.0
1242275.0
1243552.0
1243762.0
1243924.0
1244229.0
1244778.0
1244418.0
1241799.0
1239604.0
1239270.0
1240524.0
1242364.0
1244310.0
1245000.0
1245258.0
1244904.0
1245299.0
1244005.0
1241283.0
1240286.0
1239944.0
1241149.0
1242170.0
1243559.0
1244059.0
1244165.0
1245026.0
1245118.0
1243662.0
1240571.0
1239216.0
1239208.0
1241163.0
1242443.0
1243771.0
1243767.0
1243332.0
1243255.0
1243500.0
1242100.0
1240201.0
1238544.0
1237922.0
1239423.0
1240245.0
1241405.0
1242265.0
1242101.0
1242361.0
1242797.0
1242643.0
1240832.0
1239246.0
1238048.0
1238308.0
1239087.0
1241024.0
1241566.0
1241653.0
1241548.0
1241998.0
1241000.0
1239400.0
1237418.0
1236015.0
1237024.0
1238155.0
1239600.0
1239190.0
1240217.0
1239706.0
1240085.0
1239699.0
1238182.0
1236205.0
1235548.0
1236082.0
1237763.0
1239220.0
1239442.0
1240372.0
1240590.0
1240857.0
1240317.0
1237535.0
1235408.0
1234463.0
1235209.0
1236465.0
1237999.0
1238984.0
1240146.0
1240098.0
1240620.0
1239205.0
1237573.0
1235634.0
1234938.0
1235601.0
1236997.0
1238162.0
1238302.0
1238064.0
1238787.0
1238871.0
1239175.0
1237093.0
1234747.0
1233252.0
1233809.0
1235384.0
1236616.0
1237025.0
1237110.0
1237173.0
1237490.0
1236929.0
1235149.0
1233352.0
1232447.0
1233358.0
1234601.0
1236121.0
1236124.0
1235842.0
1235145.0
1236016.0
1234733.0
1233031.0
1230088.0
1229970.0
1230665.0
1232150.0
1232029.0
1231858.0
1231749.0
1231838.0
1231934.0
1230484.0
1228066.0
1227061.0
1226622.0
1227231.0
1229004.0
1229501.0
1229557.0
1229722.0
1230140.0
1230035.0
1228859.0
1226035.0
1224000.0
1223935.0
1224600.0
1225973.0
1226734.0
1226649.0
1226450.0
1226804.0
1226701.0
1225433.0
1222508.0
1220375.0
1220536.0
1222231.0
1223764.0
1224141.0
1224203.0
1224339.0
1225678.0
1225487.0
1223170.0
1220787.0
1219209.0
1219431.0
1221027.0
1222897.0
1223996.0
1224841.0
1224925.0
1224040.0
1224006.0
1222760.0
1220096.0
1218799.0
1219310.0
1219897.0
1221719.0
1222651.0
1223067.0
1224078.0
1223576.0
1224409.0
1224390.0
1223244.0
1220964.0
1219395.0
1220337.0
1222185.0
1223548.0
1224845.0
1224645.0
1223908.0
1224787.0
1224565.0
1222965.0
1221715.0
1221308.0
1221740.0
1223758.0
1225731.0
1226786.0
1227270.0
1228248.0
1229714.0
1229524.0
1227599.0
1225564.0
1224056.0
1225452.0
1227694.0
1229274.0
1230066.0
1230588.0
1232040.0
1231859.0
1231501.0
1229422.0
1227790.0
1227952.0
1229506.0
1231536.0
1233238.0
1233559.0
1234185.0
1234478.0
1234935.0
1234169.0
1232016.0
1230729.0
1230915.0
1232321.0
1234875.0
1236603.0
1235813.0
1235435.0
1235490.0
1235469.0
1234267.0
1232324.0
1231117.0
1231140.0
1232808.0
1233764.0
1235576.0
1235143.0
1235218.0
1235461.0
1236411.0
1236350.0
1235313.0
1232134.0
1230743.0
1229750.0
1224630.0
1227930.0
1257609.0
1318085.0
1404186.0
1488325.0
1552833.0
1578947.0
1581356.0
1569669.0
1556911.0
1541318.0
1520193.0
1499165.0
1478648.0
1465367.0
1460128.0
1460128.0
1472295.0
1489381.0
1516551.0
1555365.0
1555365.0
1570685.0
1614918.0
1645275.0
1668249.0
1681741.0
1705581.0
1724426.0
1736528.0
1746721.0
1741584.0
1737087.0
1729893.0
1727927.0
1732583.0
1742349.0
1753099.0
1768465.0
1770904.0
1759400.0
1758698.0
1770391.0
1783492.0
1799580.0
1818701.0
1829611.0
1865325.0
1896243.0
1933027.0
1944306.0
1965744.0
1964934.0
1963465.0
1960218.0
1957879.0
1950298.0
1951050.0
1959877.0
1973150.0
1983964.0
1997065.0
2019241.0
2037855.0
2046590.0
2051135.0
2065834.0
2088182.0
2114628.0
2137987.0
2166675.0
2184581.0
2201263.0
2213818.0
2216164.0
2225909.0
2241866.0
2263237.0
2290171.0
2299895.0
2319595.0
2335880.0
2349628.0
2358510.0
2371461.0
2377526.0
2386377.0
2380503.0
2358136.0
2330839.0
2302687.0
2280595.0
2256230.0
2226559.0
2203550.0
2186949.0
2177634.0
2167017.0
2144828.0
2129430.0
2119962.0
2116497.0
2109679.0
2097411.0
2103044.0
2093060.0
2112598.0
2110835.0
2110914.0
2126635.0
2138067.0
2151706.0
2138656.0
2156971.0
2121378.0
2146405.0
2159028.0
2174049.0
2209766.0
2237513.0
2267445.0
2267081.0
2252668.0
2229449.0
2217112.0
2227693.0
2235464.0
2234710.0
2217325.0
2203195.0
2202909.0
2199620.0
2193274.0
2193106.0
2212192.0
2226526.0
2230504.0
2230321.0
2207390.0
2212822.0
2245481.0
2246274.0
2246091.0
2248111.0
2234738.0
2234222.0
2226773.0
2217666.0
2219032.0
2224626.0
2232349.0
2245950.0
2270065.0
2294411.0
2318278.0
2351032.0
2386755.0
2429421.0
2456102.0
2467264.0
2477958.0
2482747.0
2484940.0
2510211.0
2539814.0
2561963.0
2587705.0
2580526.0
2597897.0
2631686.0
2601334.0
2588759.0
2582146.0
2577676.0
2554943.0
2556224.0
2547661.0
2551355.0
2539055.0
2516441.0
2501769.0
2494025.0
2476948.0
2472967.0
2468533.0
2440190.0
2420488.0
2402925.0
2359421.0
2340411.0
2314722.0
2302240.0
2316262.0
2322835.0
2336928.0
2363537.0
2388631.0
2446823.0
2484204.0
2509491.0
2537517.0
2528407.0
2516170.0
2509925.0
2509898.0
2510812.0
2513346.0
2520950.0
2551395.0
2583643.0
2610376.0
2617472.0
2622754.0
2640072.0
2651679.0
2660628.0
2658288.0
2640186.0
2626453.0
2618682.0
2602561.0
2578757.0
2553539.0
2537167.0
2520316.0
2493399.0
2455166.0
2437156.0
2426034.0
2435535.0
2458542.0
2457092.0
2449200.0
2470032.0
2468891.0
2489516.0
2503743.0
2508709.0
2500672.0
2499602.0
2491832.0
2470767.0
2441792.0
2404485.0
2377189.0
2360071.0
2354485.0
2349679.0
2339926.0
2322187.0
2325190.0
2333150.0
2338326.0
2331694.0
2321169.0
2306476.0
2284116.0
2262425.0
2245267.0
2235832.0
2231846.0
2211180.0
2187214.0
2158361.0
2127910.0
2105227.0
2088492.0
2098514.0
2113636.0
2158470.0
2174009.0
2177285.0
2164419.0
2164516.0
2163913.0
2166637.0
2190641.0
2188882.0
2190652.0
2188352.0
2179356.0
2166865.0
2155309.0
2144936.0
2136712.0
2128879.0
2121294.0
2116004.0
2111371.0
2110837.0
2108794.0
2102862.0
2095768.0
2090628.0
2089182.0
2086601.0
2076356.0
2064823.0
2053685.0
2047943.0
2046536.0
2043629.0
2040022.0
2034671.0
2028510.0
2021438.0
2012074.0
1996763.0
1982548.0
1970546.0
1964922.0
1961405.0
1957015.0
1951599.0
1945902.0
1940022.0
1936222.0
1926424.0
1914073.0
1902489.0
1895769.0
1892651.0
1890609.0
1887181.0
1883106.0
1879483.0
1876758.0
1873514.0
1863955.0
1854381.0
1847094.0
1844384.0
1843788.0
1843010.0
1841152.0
1838385.0
1836147.0
1834541.0
1831656.0
1823634.0
1814921.0
1810365.0
1808932.0
1808380.0
1806905.0
1804809.0
1802277.0
1799884.0
1798137.0
1792485.0
1784122.0
1776957.0
1773105.0
1771779.0
1771156.0
1770187.0
1766516.0
1764313.0
1763716.0
1760976.0
1752519.0
1745120.0
1740001.0
1738982.0
1737971.0
1737568.0
1735805.0
1733540.0
1731507.0
1730670.0
1725876.0
1718199.0
1711910.0
1708947.0
1707005.0
1706833.0
1706158.0
1702822.0
1700949.0
1699605.0
1696421.0
1688614.0
1682151.0
1677005.0
1673838.0
1673963.0
1672692.0
1670641.0
1668098.0
1664901.0
1662883.0
1657853.0
1651269.0
1645124.0
1641941.0
1641400.0
1640631.0
1638797.0
1635851.0
1633113.0
1631089.0
1626792.0
1619800.0
1613226.0
1609021.0
1607295.0
1606667.0
1603944.0
1601062.0
1597976.0
1596618.0
1592242.0
1586204.0
1579544.0
1574622.0
1572341.0
1571219.0
1569428.0
1566979.0
1564286.0
1562017.0
1560267.0
1553495.0
1546255.0
1540555.0
1537592.0
1536020.0
1534266.0
1531212.0
1527449.0
1524257.0
1522023.0
1515899.0
1507299.0
1501957.0
1497064.0
1494763.0
1492421.0
1488955.0
1485042.0
1481353.0
1478266.0
1472864.0
1464586.0
1457830.0
1454796.0
1452752.0
1449679.0
1446437.0
1443736.0
1439957.0
1437022.0
1431689.0
1423876.0
1417121.0
1414103.0
1411836.0
1409899.0
1407243.0
1404560.0
1400512.0
1398064.0
1393799.0
1387324.0
1380546.0
1376220.0
1374766.0
1373888.0
1371801.0
1368427.0
1366221.0
1364600.0
1362560.0
1358109.0
1351277.0
1347505.0
1346502.0
1347639.0
1346391.0
1346378.0
1344884.0
1344084.0
1343909.0
1340307.0
1335087.0
1330632.0
1328910.0
1330033.0
1331755.0
1332562.0
1331298.0
1330927.0
1331208.0
1331280.0
1328803.0
1325098.0
1322728.0
1322023.0
1323396.0
1325041.0
1325381.0
1325630.0
1325941.0
1326918.0
1326438.0
1323554.0
1319277.0
1318125.0
1318519.0
1319862.0
1321662.0
1323549.0
1323259.0
1324118.0
1325078.0
1323582.0
1319990.0
1317175.0
1316515.0
1318236.0
1320661.0
1322125.0
1323080.0
1323867.0
1325080.0
1326424.0
1325080.0
1322051.0
1319839.0
1320003.0
1322346.0
1325214.0
1326842.0
1327928.0
1328908.0
1330499.0
1333326.0
1332275.0
1329490.0
1327460.0
1326105.0
1328919.0
1330822.0
1333063.0
1334194.0
1334716.0
1335865.0
1336957.0
1338220.0
1336821.0
1334623.0
1334150.0
1336433.0
1338295.0
1340271.0
1341675.0
1342060.0
1343353.0
1344923.0
1345894.0
1345369.0
1342555.0
1340764.0
1339308.0
1341110.0
1343517.0
1346582.0
1347656.0
1348460.0
1349662.0
1350174.0
1351170.0
1349930.0
1347653.0
1346558.0
1347739.0
1350184.0
1352043.0
1352871.0
1353272.0
1354917.0
1355263.0
1356610.0
1355973.0
1353204.0
1351112.0
1350925.0
1352331.0
1354756.0
1356450.0
1357462.0
1357982.0
1358735.0
1359933.0
1360516.0
1358663.0
1356229.0
1355179.0
1356332.0
1357674.0
1358665.0
1359176.0
1360737.0
1360896.0
1363188.0
1363695.0
1362751.0
1360513.0
1358567.0
1358505.0
1360251.0
1363254.0
1364516.0
1365109.0
1365108.0
1365681.0
1366580.0
1366309.0
1364250.0
1361815.0
1360642.0
1361009.0
1362494.0
1363680.0
1364175.0
1364148.0
1364850.0
1365087.0
1364678.0
1361747.0
1360498.0
1358750.0
1360234.0
1361168.0
1362535.0
1363793.0
1363981.0
1364688.0
1365618.0
1365239.0
1362786.0
1360258.0
1358645.0
1359191.0
1361760.0
1362397.0
1363009.0
1363040.0
1362977.0
1362635.0
1360504.0
1357947.0
1354467.0
1354066.0
1355475.0
1357148.0
1358615.0
1357725.0
1357451.0
1358394.0
1358543.0
1354465.0
1350268.0
1346809.0
1345762.0
1347229.0
1348981.0
1349795.0
1350005.0
1350326.0
1350750.0
1350507.0
1348245.0
1344771.0
1342834.0
1342704.0
1344648.0
1346964.0
1348197.0
1347058.0
1347251.0
1348171.0
1347060.0
1342780.0
1339960.0
1338617.0
1338660.0
1341027.0
1342784.0
1341928.0
1341676.0
1342168.0
1342506.0
1341219.0
1337577.0
1334960.0
1333276.0
1334486.0
1337026.0
1337656.0
1336471.0
1336502.0
1337745.0
1336959.0
1333827.0
1330173.0
1328117.0
1329777.0
1331495.0
1333502.0
1334500.0
1334549.0
1335062.0
1336409.0
1334984.0
1330475.0
1327846.0
1328258.0
1330677.0
1333049.0
1334976.0
1333754.0
1334241.0
1335166.0
1334160.0
1330064.0
1326235.0
1324726.0
1327232.0
1330331.0
1332050.0
1332780.0
1333598.0
1333519.0
1333963.0
1332334.0
1329713.0
1328328.0
1329772.0
1332938.0
1334423.0
1335722.0
1336117.0
1336811.0
1338288.0
1338296.0
1335669.0
1333943.0
1333073.0
1334227.0
1337361.0
1339335.0
1340481.0
1341847.0
1343610.0
1344938.0
1344040.0
1341977.0
1339317.0
1339883.0
1342949.0
1346929.0
1348706.0
1349453.0
1349844.0
1349817.0
1350263.0
1348258.0
1345399.0
1345046.0
1346069.0
1347653.0
1349989.0
1351239.0
1351663.0
1353035.0
1354418.0
1355584.0
1353463.0
1350045.0
1350205.0
1351520.0
1353578.0
1356147.0
1358277.0
1358122.0
1360535.0
1361033.0
1360884.0
1358712.0
1356612.0
1356536.0
1358836.0
1361578.0
1363334.0
1364516.0
1365410.0
1367134.0
1368632.0
1366524.0
1364175.0
1363090.0
1362298.0
1364320.0
1366387.0
1368933.0
1368776.0
1369084.0
1371292.0
1372912.0
1372368.0
1369746.0
1367436.0
1367021.0
1368879.0
1371364.0
1372261.0
1372983.0
1373564.0
1374790.0
1376293.0
1377433.0
1374492.0
1371910.0
1371323.0
1373221.0
1375533.0
1377576.0
1377443.0
1378385.0
1378833.0
1379859.0
1380714.0
1379029.0
1375219.0
1373417.0
1373575.0
1375242.0
1377149.0
1378424.0
1379025.0
1379703.0
1380319.0
1380239.0
1379903.0
1377695.0
1375393.0
1374642.0
1375945.0
1376825.0
1378810.0
1378575.0
1378859.0
1379896.0
1381264.0
1379070.0
1375681.0
1373189.0
1372118.0
1373523.0
1375389.0
1376757.0
1377245.0
1377532.0
1378149.0
1379134.0
1377606.0
1375162.0
1372529.0
1372054.0
1373436.0
1375445.0
1375524.0
1375612.0
1375456.0
1375593.0
1376291.0
1374900.0
1372052.0
1369771.0
1369271.0
1371990.0
1373249.0
1375245.0
1375860.0
1375547.0
1376563.0
1376444.0
1375403.0
1372648.0
1369891.0
1369237.0
1370521.0
1372381.0
1373928.0
1374523.0
1375184.0
1376553.0
1377526.0
1375706.0
1373018.0
1370506.0
1369950.0
1371012.0
1372930.0
1374439.0
1374686.0
1369599.0
1363108.0
1359181.0
1354858.0
1350695.0
1347205.0
1346398.0
1347662.0
1349482.0
1350457.0
1349695.0
1349842.0
1350657.0
1351916.0
1352727.0
1350549.0
1347862.0
1345831.0
1346454.0
1348277.0
1349863.0
1351199.0
1351442.0
1351134.0
1352059.0
1351930.0
1350162.0
1347431.0
1345108.0
1345899.0
1347407.0
1348602.0
1349831.0
1349713.0
1349806.0
1349487.0
1347888.0
1344773.0
1341709.0
1341236.0
1341032.0
1342986.0
1343433.0
1343168.0
1342226.0
1342030.0
1342192.0
1340055.0
1336928.0
1335459.0
1335209.0
1336260.0
1337601.0
1338487.0
1338487.0
1337913.0
1337743.0
1334803.0
1332068.0
1331465.0
1331664.0
1334121.0
1336172.0
1337928.0
1338119.0
1337117.0
1337855.0
1337826.0
1335647.0
1333117.0
1332003.0
1333652.0
1335699.0
1337132.0
1336648.0
1336479.0
1336921.0
1337869.0
1338529.0
1335898.0
1333119.0
1332470.0
1333602.0
1335891.0
1337913.0
1338402.0
1338682.0
1339120.0
1340034.0
1339497.0
1337172.0
1334910.0
1334434.0
1336593.0
1338231.0
1340555.0
1341712.0
1342963.0
1342277.0
1343645.0
1344392.0
1341087.0
1338844.0
1338829.0
1340170.0
1341692.0
1343286.0
1344043.0
1344171.0
1345717.0
1347304.0
1347476.0
1345358.0
1342133.0
1342902.0
1345114.0
1347437.0
1348188.0
1349865.0
1349392.0
1349866.0
1351682.0
1349950.0
1346964.0
1344311.0
1343146.0
1344394.0
1346394.0
1347788.0
1348463.0
1348558.0
1349761.0
1350834.0
1348881.0
1344505.0
1342606.0
1342430.0
1344503.0
1345407.0
1346639.0
1346929.0
1348151.0
1348822.0
1348554.0
1345634.0
1340663.0
1338516.0
1339283.0
1341769.0
1344795.0
1344397.0
1345008.0
1345512.0
1346496.0
1345953.0
1342598.0
1339768.0
1338212.0
1338500.0
1341770.0
1342520.0
1343102.0
1343545.0
1344689.0
1344851.0
1343490.0
1339700.0
1336467.0
1335732.0
1338103.0
1340412.0
1340920.0
1340756.0
1341117.0
1342043.0
1343135.0
1342164.0
1338175.0
1335609.0
1334732.0
1336445.0
1338765.0
1340006.0
1341086.0
1341371.0
1342117.0
1343714.0
1342491.0
1339785.0
1337201.0
1337484.0
1338958.0
1341343.0
1342062.0
1342377.0
1342598.0
1344189.0
1344060.0
1343910.0
1341017.0
1337747.0
1336913.0
1337882.0
1340416.0
1341314.0
1341877.0
1341926.0
1343312.0
1344461.0
1344488.0
1341106.0
1338076.0
1336993.0
1338855.0
1341094.0
1342908.0
1343639.0
1344049.0
1345029.0
1346388.0
1346756.0
1343418.0
1341712.0
1339334.0
1341226.0
1342467.0
1344756.0
1346193.0
1347793.0
1348025.0
1350285.0
1350059.0
1347383.0
1344081.0
1343407.0
1344041.0
1346650.0
1348248.0
1350158.0
1350716.0
1350347.0
1351579.0
1352893.0
1352158.0
1349220.0
1347751.0
1347747.0
1350000.0
1352808.0
1354849.0
1354080.0
1355052.0
1356809.0
1359306.0
1358680.0
1356177.0
1354142.0
1354232.0
1355998.0
1358502.0
1360296.0
1360443.0
1361073.0
1362297.0
1363717.0
1364280.0
1362414.0
1360115.0
1359274.0
1360827.0
1363692.0
1365088.0
1366608.0
1366614.0
1367357.0
1368535.0
1367746.0
1366257.0
1364185.0
1363050.0
1363811.0
1366403.0
1369422.0
1370421.0
1370316.0
1370741.0
1371903.0
1372565.0
1370655.0
1368624.0
1366724.0
1366054.0
1368990.0
1369927.0
1370899.0
1371329.0
1371733.0
1372635.0
1373875.0
1373310.0
1370061.0
1367551.0
1367303.0
1368912.0
1371278.0
1373341.0
1372993.0
1373589.0
1373305.0
1374167.0
1373161.0
1370423.0
1367757.0
1367709.0
1368171.0
1370918.0
1371650.0
1372470.0
1372462.0
1372816.0
1373076.0
1372836.0
1371181.0
1366973.0
1366649.0
1367580.0
1368603.0
1371040.0
1370567.0
1370792.0
1371400.0
1373377.0
1372398.0
1369837.0
1367567.0
1364699.0
1365463.0
1367444.0
1369379.0
1370734.0
1370964.0
1369857.0
1369893.0
1369479.0
1367029.0
1363569.0
1361275.0
1361264.0
1363437.0
1365008.0
1365879.0
1365456.0
1366393.0
1366463.0
1366198.0
1363937.0
1359413.0
1357645.0
1358452.0
1359781.0
1361478.0
1361970.0
1362515.0
1362153.0
1363833.0
1363611.0
1359397.0
1355884.0
1354977.0
1356316.0
1358141.0
1359885.0
1360490.0
1360823.0
1361597.0
1362605.0
1363162.0
1360308.0
1357411.0
1356428.0
1357088.0
1359578.0
1361496.0
1362607.0
1361781.0
1362542.0
1364227.0
1363696.0
1360835.0
1357692.0
1357663.0
1359684.0
1362284.0
1364006.0
1364589.0
1365134.0
1367608.0
1369364.0
1368772.0
1366072.0
1363376.0
1362622.0
1365239.0
1367519.0
1370542.0
1371655.0
1372327.0
1372824.0
1374457.0
1375014.0
1372750.0
1370903.0
1370392.0
1371094.0
1373447.0
1376144.0
1376174.0
1376697.0
1377755.0
1379042.0
1379895.0
1376376.0
1374183.0
1372542.0
1374668.0
1377348.0
1379325.0
1379186.0
1379642.0
1380096.0
1381202.0
1380856.0
1378198.0
1376680.0
1375187.0
1377214.0
1379784.0
1382595.0
1382756.0
1383899.0
1385340.0
1386192.0
1385212.0
1382326.0
1381020.0
1380123.0
1381957.0
1384551.0
1386725.0
1387642.0
1388272.0
1390244.0
1390474.0
1389489.0
1387113.0
1384812.0
1384612.0
1387449.0
1389175.0
1391178.0
1392173.0
1393141.0
1395205.0
1396073.0
1396071.0
1394063.0
1391820.0
1391060.0
1393015.0
1395301.0
1397618.0
1397212.0
1396781.0
1397241.0
1398009.0
1398485.0
1396652.0
1394851.0
1393976.0
1394994.0
1396191.0
1397921.0
1398995.0
1399828.0
1400718.0
1401594.0
1401933.0
1401384.0
1399142.0
1397747.0
1398599.0
1399453.0
1401291.0
1402097.0
1402263.0
1402867.0
1403933.0
1405739.0
1404338.0
1402386.0
1400324.0
1401297.0
1403456.0
1405564.0
1406581.0
1406800.0
1408117.0
1408330.0
1409007.0
1406299.0
1403792.0
1402344.0
1403666.0
1405864.0
1407519.0
1407602.0
1407636.0
1407983.0
1408910.0
1410108.0
1408576.0
1404838.0
1403207.0
1403597.0
1405000.0
1406464.0
1408053.0
1407728.0
1408923.0
1410498.0
1410943.0
1409203.0
1406159.0
1404278.0
1404163.0
1408000.0
1410958.0
1412580.0
1411918.0
1412975.0
1412651.0
1411737.0
1410239.0
1408356.0
1407300.0
1407646.0
1410277.0
1410569.0
1410690.0
1410508.0
1411698.0
1411916.0
1411418.0
1408476.0
1407047.0
1405686.0
1406714.0
1408251.0
1409484.0
1409184.0
1407947.0
1407980.0
1407872.0
1406180.0
1403061.0
1400957.0
1400726.0
1402449.0
1404959.0
1405631.0
1405525.0
1404716.0
1406312.0
1405750.0
1401605.0
1398466.0
1398556.0
1398838.0
1401629.0
1402768.0
1402229.0
1402509.0
1402959.0
1402751.0
1400885.0
1397577.0
1395651.0
1395975.0
1397603.0
1399580.0
1398910.0
1399008.0
1399667.0
1401021.0
1400677.0
1398168.0
1396407.0
1395621.0
1395966.0
1396970.0
1398586.0
1399034.0
1398785.0
1400480.0
1401834.0
1400652.0
1398579.0
1395562.0
1395434.0
1397600.0
1400635.0
1401096.0
1401245.0
1402001.0
1403141.0
1404418.0
1403218.0
1401974.0
1399818.0
1401160.0
1402320.0
1404372.0
1405416.0
1405721.0
1406725.0
1408196.0
1408950.0
1408538.0
1405852.0
1404948.0
1406578.0
1408102.0
1410083.0
1411125.0
1411672.0
1412506.0
1413810.0
1413542.0
1412144.0
1410358.0
1409859.0
1411367.0
1413723.0
1415646.0
1417125.0
1418077.0
1418288.0
1420568.0
1419897.0
1417989.0
1416281.0
1416027.0
1417143.0
1418784.0
1419904.0
1420759.0
1422160.0
1423224.0
1423122.0
1422157.0
1420922.0
1419239.0
1419538.0
1421140.0
1422470.0
1422393.0
1422990.0
1424104.0
1426089.0
1426450.0
1426370.0
1423501.0
1422164.0
1422162.0
1423929.0
1425585.0
1426573.0
1427262.0
1428130.0
1429390.0
1430623.0
1430202.0
1428505.0
1426779.0
1427771.0
1429152.0
1430069.0
1431363.0
1432766.0
1433488.0
1433750.0
1434890.0
1435029.0
1432952.0
1431113.0
1430646.0
1432538.0
1433533.0
1434585.0
1435767.0
1436322.0
1435973.0
1436738.0
1435895.0
1434620.0
1431866.0
1431195.0
1432258.0
1433780.0
1434846.0
1435634.0
1436079.0
1435842.0
1436354.0
1435286.0
1433199.0
1431187.0
1430614.0
1431835.0
1433425.0
1434490.0
1435696.0
1435307.0
1436688.0
1436173.0
1435213.0
1432571.0
1430552.0
1429413.0
1430713.0
1432357.0
1433053.0
1433413.0
1433603.0
1434705.0
1434478.0
1432101.0
1429381.0
1427323.0
1428819.0
1430708.0
1432257.0
1431571.0
1431427.0
1431582.0
1432059.0
1431787.0
1430621.0
1427097.0
1425570.0
1427490.0
1428436.0
1429797.0
1430015.0
1429792.0
1431325.0
1431282.0
1430521.0
1427848.0
1424946.0
1424371.0
1426110.0
1427025.0
1427820.0
1428884.0
1428862.0
1428371.0
1428023.0
1427215.0
1424610.0
1421943.0
1421361.0
1422818.0
1425700.0
1426587.0
1425722.0
1425848.0
1426080.0
1426700.0
1425597.0
1421825.0
1418022.0
1415952.0
1417709.0
1421237.0
1422290.0
1422365.0
1421591.0
1422247.0
1422004.0
1419589.0
1416687.0
1415880.0
1415707.0
1417809.0
1419037.0
1419374.0
1419461.0
1419947.0
1421194.0
1420230.0
1416835.0
1413874.0
1412231.0
1414544.0
1416423.0
1416526.0
1416763.0
1416869.0
1417622.0
1417497.0
1415783.0
1412576.0
1410727.0
1411283.0
1413449.0
1414185.0
1415249.0
1415093.0
1416130.0
1417035.0
1415451.0
1412770.0
1410256.0
1409848.0
1411493.0
1414187.0
1415257.0
1415527.0
1416454.0
1417688.0
1418303.0
1416570.0
1413737.0
1412516.0
1411733.0
1412686.0
1412157.0
1411651.0
1413330.0
1413216.0
1413917.0
1413401.0
1410940.0
1409215.0
1407040.0
1407729.0
1410339.0
1410955.0
1411083.0
1412150.0
1411842.0
1412718.0
1412145.0
1409874.0
1407465.0
1406720.0
1408777.0
1410006.0
1411435.0
1411537.0
1411464.0
1412201.0
1413055.0
1412849.0
1410173.0
1407374.0
1407381.0
1409128.0
1411883.0
1413323.0
1413980.0
1414015.0
1416200.0
1416896.0
1414905.0
1414192.0
1412709.0
1413925.0
1415665.0
1416842.0
1418097.0
1419309.0
1419618.0
1420722.0
1421127.0
1420249.0
1418513.0
1417722.0
1418583.0
1420492.0
1422339.0
1423270.0
1424063.0
1426000.0
1426413.0
1426827.0
1425938.0
1424416.0
1423194.0
1425025.0
1425890.0
1427484.0
1429245.0
1429711.0
1430524.0
1431921.0
1432502.0
1431428.0
1429289.0
1429447.0
1430567.0
1431415.0
1432915.0
1433605.0
1434298.0
1435499.0
1436713.0
1437575.0
1436672.0
1435684.0
1435387.0
1436105.0
1437360.0
1439038.0
1440724.0
1442215.0
1442858.0
1444639.0
1445195.0
1443675.0
1441659.0
1439704.0
1439959.0
1437527.0
1438315.0
1441089.0
1442037.0
1457725.0
1485483.0
1523532.0
1570925.0
1599947.0
1620697.0
1629029.0
1640378.0
1697992.0
1824185.0
1978025.0
2126560.0
2234837.0
2311115.0
2364106.0
2393418.0
2402948.0
2409276.0
2408436.0
2405612.0
2403785.0
2390449.0
2378170.0
2367006.0
2364015.0
2372355.0
2382981.0
2382015.0
2393636.0
2436516.0
2497966.0
2534503.0
2594784.0
2641601.0
2671023.0
2695931.0
2726562.0
2722620.0
2700940.0
2697988.0
2702459.0
2708858.0
2723215.0
2738569.0
2771263.0
2793968.0
2820511.0
2872516.0
2825820.0
2781784.0
2763992.0
2787082.0
2833366.0
2896539.0
2928799.0
2922317.0
2906753.0
2877932.0
2846446.0
2837315.0
2783845.0
2800833.0
2812252.0
2800931.0
2803523.0
2821969.0
2822131.0
2820380.0
2828210.0
2816133.0
2797925.0
2791852.0
2787650.0
2782767.0
2775671.0
2773612.0
2768337.0
2764670.0
2770027.0
2767728.0
2765578.0
2765578.0
2758640.0
2768435.0
2765735.0
2761630.0
2752564.0
2763504.0
2764327.0
2750407.0
2733625.0
2722679.0
2705902.0
2680830.0
2652826.0
2630838.0
2609533.0
2582213.0
2563726.0
2538253.0
2509052.0
2478629.0
2456966.0
2446758.0
2437167.0
2424377.0
2418231.0
2415696.0
2410041.0
2400535.0
2381814.0
2358940.0
2340935.0
2327745.0
2312913.0
2299009.0
2287276.0
2275374.0
2264491.0
2253806.0
2241299.0
2226236.0
2210963.0
2197895.0
2190102.0
2184808.0
2178218.0
2169391.0
2162502.0
2146690.0
2143409.0
2141086.0
2132500.0
2136362.0
2183520.0
2216350.0
2250645.0
2239745.0
2216243.0
2186292.0
2169394.0
2153716.0
2135890.0
2125899.0
2120128.0
2112692.0
2111022.0
2109012.0
2106992.0
2105110.0
2105906.0
2108497.0
2111065.0
2110301.0
2110086.0
2107066.0
2112889.0
2106205.0
2102481.0
2091833.0
2087087.0
2076065.0
2061601.0
2048011.0
2041863.0
2051236.0
2052591.0
2058719.0
2072276.0
2099232.0
2105154.0
2111719.0
2116488.0
2118561.0
2119199.0
2119017.0
2127513.0
2137014.0
2147151.0
2155987.0
2158746.0
2164147.0
2174226.0
2203223.0
2240442.0
2276853.0
2297519.0
2307403.0
2312700.0
2292286.0
2293206.0
2279780.0
2283622.0
2287522.0
2290157.0
2282900.0
2263665.0
2244175.0
2218660.0
2198256.0
2180201.0
2171586.0
2169534.0
2165269.0
2158615.0
2154682.0
2150404.0
2141156.0
2134007.0
2131060.0
2135159.0
2139778.0
2142775.0
2140537.0
2136387.0
2133979.0
2138843.0
2146031.0
2151971.0
2152800.0
2151736.0
2144455.0
2125425.0
2106262.0
2088482.0
2077796.0
2092658.0
2117367.0
2127909.0
2183701.0
2198824.0
2222830.0
2243670.0
2258795.0
2259407.0
2256263.0
2246749.0
2234836.0
2230598.0
2218015.0
2203926.0
2194082.0
2184858.0
2170505.0
2153693.0
2139832.0
2130940.0
2125786.0
2121154.0
2116309.0
2109803.0
2103196.0
2097779.0
2087771.0
2074544.0
2063481.0
2054701.0
2049332.0
2044500.0
2038177.0
2032365.0
2027296.0
2021848.0
2011402.0
1998359.0
1987496.0
1981046.0
1978089.0
1975935.0
1972020.0
1967698.0
1964560.0
1961509.0
1952907.0
1941952.0
1934267.0
1929030.0
1928778.0
1930080.0
1927716.0
1926272.0
1924939.0
1923858.0
1916846.0
1907002.0
1900011.0
1898221.0
1900233.0
1902638.0
1902323.0
1902235.0
1901237.0
1900791.0
1894169.0
1885460.0
1879711.0
1880636.0
1883531.0
1884903.0
1886676.0
1888567.0
1890077.0
1888008.0
1880905.0
1872738.0
1868957.0
1869765.0
1874465.0
1876721.0
1876505.0
1875547.0
1876228.0
1874381.0
1866381.0
1859676.0
1857027.0
1858326.0
1861961.0
1864099.0
1866682.0
1866410.0
1870531.0
1867933.0
1860466.0
1854153.0
1852863.0
1856115.0
1860063.0
1860624.0
1860769.0
1861914.0
1863566.0
1860522.0
1852895.0
1847876.0
1847283.0
1849330.0
1853364.0
1855031.0
1856045.0
1857553.0
1859605.0
1857183.0
1850366.0
1845271.0
1846533.0
1850708.0
1853875.0
1855684.0
1857189.0
1859792.0
1861410.0
1859732.0
1853771.0
1849387.0
1849417.0
1854089.0
1859159.0
1861464.0
1863733.0
1867194.0
1870550.0
1869592.0
1864061.0
1858883.0
1859764.0
1864274.0
1868598.0
1870443.0
1872179.0
1874151.0
1876813.0
1877994.0
1872674.0
1866920.0
1864685.0
1868345.0
1872785.0
1875463.0
1875328.0
1875869.0
1877447.0
1878963.0
1872959.0
1864477.0
1860771.0
1862309.0
1867015.0
1868593.0
1869253.0
1869767.0
1871444.0
1871735.0
1867950.0
1860756.0
1856921.0
1856802.0
1858231.0
1858841.0
1852574.0
1845666.0
1840393.0
1836407.0
1833177.0
1825593.0
1818245.0
1815848.0
1815958.0
1818322.0
1820542.0
1819455.0
1818998.0
1819244.0
1821537.0
1818039.0
1811624.0
1806135.0
1804430.0
1806630.0
1808648.0
1808724.0
1808387.0
1808364.0
1806685.0
1806256.0
1802855.0
1796927.0
1792491.0
1791823.0
1793436.0
1795545.0
1794246.0
1792847.0
1791911.0
1792941.0
1792353.0
1787004.0
1779597.0
1775897.0
1776247.0
1778749.0
1779510.0
1778522.0
1776998.0
1776204.0
1776996.0
1774944.0
1769642.0
1765175.0
1763782.0
1765398.0
1767064.0
1766845.0
1765636.0
1765847.0
1766103.0
1765212.0
1760923.0
1754432.0
1749920.0
1749009.0
1750615.0
1750963.0
1749999.0
1748152.0
1747240.0
1747632.0
1743813.0
1737286.0
1731006.0
1727797.0
1728388.0
1729162.0
1728860.0
1727057.0
1726105.0
1725847.0
1723471.0
1718717.0
1710853.0
1706609.0
1705963.0
1708029.0
1706898.0
1705118.0
1703382.0
1702297.0
1701469.0
1697345.0
1691838.0
1685516.0
1683708.0
1684756.0
1685400.0
1685085.0
1683281.0
1682869.0
1682743.0
1680047.0
1674325.0
1668747.0
1666616.0
1667573.0
1669184.0
1669396.0
1668376.0
1667737.0
1668308.0
1667733.0
1665019.0
1659417.0
1655618.0
1656459.0
1657838.0
1659077.0
1659735.0
1658164.0
1658695.0
1659699.0
1657113.0
1652776.0
1648862.0
1648074.0
1648985.0
1650925.0
1650808.0
1649782.0
1649667.0
1650056.0
1649217.0
1644080.0
1638275.0
1636529.0
1636824.0
1639560.0
1639893.0
1638169.0
1636893.0
1636670.0
1636778.0
1632463.0
1626971.0
1624584.0
1624598.0
1626281.0
1626942.0
1626208.0
1625332.0
1624785.0
1625989.0
1624026.0
1618438.0
1613472.0
1612144.0
1613592.0
1614845.0
1614866.0
1614612.0
1614810.0
1615105.0
1615136.0
1611028.0
1605265.0
1602145.0
1602190.0
1603796.0
1604342.0
1602737.0
1601824.0
1601725.0
1602579.0
1601363.0
1596901.0
1592844.0
1591583.0
1592808.0
1594296.0
1594572.0
1594446.0
1594200.0
1593376.0
1594274.0
1592009.0
1587707.0
1584486.0
1584350.0
1586636.0
1588486.0
1588659.0
1587389.0
1587379.0
1588203.0
1589329.0
1587511.0
1582232.0
1580031.0
1581410.0
1583303.0
1584625.0
1584571.0
1583145.0
1583427.0
1584180.0
1585067.0
1582040.0
1578548.0
1576948.0
1578015.0
1580934.0
1581409.0
1581301.0
1581355.0
1581805.0
1582177.0
1582788.0
1580654.0
1578035.0
1577086.0
1578388.0
1581117.0
1581379.0
1581587.0
1581502.0
1581905.0
1582786.0
1583674.0
1581685.0
1579769.0
1578808.0
1579981.0
1581825.0
1582343.0
1583121.0
1581908.0
1582216.0
1582829.0
1583946.0
1581192.0
1578720.0
1576695.0
1577658.0
1578870.0
1579224.0
1578761.0
1578317.0
1578477.0
1578830.0
1576989.0
1574657.0
1572052.0
1570799.0
1571511.0
1572437.0
1573131.0
1572051.0
1571599.0
1570887.0
1571540.0
1568561.0
1564448.0
1562920.0
1563061.0
1563712.0
1564356.0
1563638.0
1562519.0
1561222.0
1561053.0
1559076.0
1554897.0
1550617.0
1548964.0
1549311.0
1550327.0
1549749.0
1548573.0
1546673.0
1546213.0
1545774.0
1543005.0
1538554.0
1535830.0
1535129.0
1535889.0
1535952.0
1535028.0
1533391.0
1532139.0
1531395.0
1529928.0
1526034.0
1522082.0
1520314.0
1521164.0
1521634.0
1521194.0
1518825.0
1517716.0
1517064.0
1516745.0
1513873.0
1509769.0
1506839.0
1505857.0
1506621.0
1507028.0
1506219.0
1504940.0
1504169.0
1503817.0
1502762.0
1499628.0
1496003.0
1494499.0
1494637.0
1494672.0
1494559.0
1494663.0
1492539.0
1492007.0
1491934.0
1490014.0
1487174.0
1484477.0
1483935.0
1484016.0
1484700.0
1484472.0
1483725.0
1483179.0
1483803.0
1482861.0
1481120.0
1477693.0
1476209.0
1476679.0
1476881.0
1478202.0
1477423.0
1477328.0
1476326.0
1476382.0
1474955.0
1471724.0
1469439.0
1469002.0
1470309.0
1471472.0
1471436.0
1470763.0
1471231.0
1471494.0
1470516.0
1467606.0
1463478.0
1462094.0
1463347.0
1464588.0
1465863.0
1464626.0
1464217.0
1464071.0
1463681.0
1460964.0
1457400.0
1456239.0
1457200.0
1457648.0
1457988.0
1457522.0
1457143.0
1457727.0
1457162.0
1454975.0
1451801.0
1450345.0
1449193.0
1450025.0
1450640.0
1450535.0
1450196.0
1450053.0
1449272.0
1447742.0
1444311.0
1442112.0
1441072.0
1440850.0
1441878.0
1442786.0
1441296.0
1440777.0
1440697.0
1441265.0
1438627.0
1434712.0
1432456.0
1432482.0
1433670.0
1434399.0
1433919.0
1433760.0
1434253.0
1435286.0
1435231.0
1434186.0
1431555.0
1431321.0
1432780.0
1434479.0
1435129.0
1434665.0
1434848.0
1433375.0
1432991.0
1431248.0
1427967.0
1423553.0
1421554.0
1421554.0
1422348.0
1422492.0
1422322.0
1422207.0
1422528.0
1421559.0
1418930.0
1415396.0
1413027.0
1412960.0
1413897.0
1415652.0
1415929.0
1415060.0
1414063.0
1413939.0
1412780.0
1409670.0
1405823.0
1404222.0
1405183.0
1405068.0
1406087.0
1406085.0
1406551.0
1407289.0
1408298.0
1408632.0
1406524.0
1403894.0
1402619.0
1403722.0
1405562.0
1407421.0
1407671.0
1407802.0
1407855.0
1408513.0
1407409.0
1405446.0
1405066.0
1404627.0
1407249.0
1408635.0
1410205.0
1409579.0
1409878.0
1410537.0
1410031.0
1407659.0
1404827.0
1403555.0
1403757.0
1405421.0
1407699.0
1410507.0
1412819.0
1414619.0
1415713.0
1415006.0
1412005.0
1410353.0
1410903.0
1413159.0
1415448.0
1416357.0
1416434.0
1416882.0
1416998.0
1417241.0
1415316.0
1412622.0
1411437.0
1412596.0
1415179.0
1416894.0
1418476.0
1417367.0
1417355.0
1417347.0
1416261.0
1414428.0
1413445.0
1412599.0
1414019.0
1415472.0
1417306.0
1416659.0
1416973.0
1417376.0
1418252.0
1417796.0
1416367.0
1415811.0
1415142.0
1417266.0
1418321.0
1419029.0
1418802.0
1418083.0
1418715.0
1418782.0
1418721.0
1416818.0
1416454.0
1418152.0
1419586.0
1420008.0
1420432.0
1420801.0
1420930.0
1420857.0
1419677.0
1417771.0
1416481.0
1416718.0
1417636.0
1418454.0
1419076.0
1419062.0
1419324.0
1419797.0
1420045.0
1419255.0
1418141.0
1417771.0
1418509.0
1419772.0
1420567.0
1421151.0
1421339.0
1421483.0
1422174.0
1421923.0
1420870.0
1420321.0
1421040.0
1422912.0
1425062.0
1426455.0
1427495.0
1428066.0
1428942.0
1428628.0
1428473.0
1427792.0
1426811.0
1428048.0
1430196.0
1430702.0
1431137.0
1431036.0
1430781.0
1431000.0
1429031.0
1426536.0
1425676.0
1427464.0
1428148.0
1428678.0
1428747.0
1428317.0
1428209.0
1427772.0
1425985.0
1423437.0
1422022.0
1423442.0
1424618.0
1424251.0
1424207.0
1423899.0
1423522.0
1422681.0
1420494.0
1417973.0
1417501.0
1417536.0
1419058.0
1420544.0
1420914.0
1421116.0
1421928.0
1420375.0
1418117.0
1414587.0
1412062.0
1411592.0
1413662.0
1414337.0
1413322.0
1412773.0
1411913.0
1411868.0
1412023.0
1408292.0
1407013.0
1406899.0
1407416.0
1407442.0
1407460.0
1406362.0
1405274.0
1405900.0
1404069.0
1399785.0
1397271.0
1396214.0
1397586.0
1399393.0
1399880.0
1399880.0
1400038.0
1400763.0
1400443.0
1396542.0
1396542.0
1398636.0
1401119.0
1402573.0
1402783.0
1403083.0
1404167.0
1404596.0
1404052.0
1401623.0
1400811.0
1402249.0
1405322.0
1407009.0
1406884.0
1407458.0
1408240.0
1408785.0
1408725.0
1406399.0
1406234.0
1407716.0
1409059.0
1411687.0
1411628.0
1412063.0
1413271.0
1414428.0
1414033.0
1412656.0
1412578.0
1411883.0
1413902.0
1416705.0
1417013.0
1417413.0
1418760.0
1418921.0
1418344.0
1416545.0
1413689.0
1413479.0
1415042.0
1415453.0
1415705.0
1417013.0
1416732.0
1418484.0
1418078.0
1415894.0
1414462.0
1414613.0
1416203.0
1418146.0
1418516.0
1420016.0
1421025.0
1422489.0
1421883.0
1419988.0
1417396.0
1417159.0
1419162.0
1422613.0
1424211.0
1423990.0
1424349.0
1418366.0
1410489.0
1404044.0
1400622.0
1401133.0
1405684.0
1410414.0
1412732.0
1414713.0
1415637.0
1416804.0
1417958.0
1417412.0
1415988.0
1414715.0
1415347.0
1416726.0
1418560.0
1418604.0
1419273.0
1420064.0
1419475.0
1419256.0
1417432.0
1415397.0
1414748.0
1416564.0
1417363.0
1419841.0
1419517.0
1419660.0
1420393.0
1422227.0
1421290.0
1417411.0
1416060.0
1417059.0
1418750.0
1420859.0
1421551.0
1421526.0
1422107.0
1422444.0
1422913.0
1421738.0
1420142.0
1418433.0
1418862.0
1420208.0
1421332.0
1421913.0
1422310.0
1422135.0
1422400.0
1422198.0
1420416.0
1418615.0
1418577.0
1419861.0
1421284.0
1422109.0
1422623.0
1424222.0
1424002.0
1423502.0
1421362.0
1419091.0
1417819.0
1418971.0
1419336.0
1420283.0
1420392.0
1419934.0
1419736.0
1420425.0
1419135.0
1417365.0
1415689.0
1415362.0
1416422.0
1416760.0
1417725.0
1418091.0
1418532.0
1419786.0
1420582.0
1418170.0
1415986.0
1414720.0
1415675.0
1418345.0
1420046.0
1419806.0
1420273.0
1420569.0
1421475.0
1421055.0
1419222.0
1417306.0
1417546.0
1418788.0
1418936.0
1419771.0
1419812.0
1419886.0
1419361.0
1419224.0
1417594.0
1415489.0
1415193.0
1415718.0
1416924.0
1418612.0
1419124.0
1420601.0
1421590.0
1421369.0
1421187.0
1418862.0
1416874.0
1416292.0
1417127.0
1417585.0
1418598.0
1419073.0
1419729.0
1421048.0
1421978.0
1421873.0
1419788.0
1418854.0
1417700.0
1419024.0
1420623.0
1421688.0
1422340.0
1423199.0
1422720.0
1423078.0
1422236.0
1420610.0
1420396.0
1420022.0
1421293.0
1422400.0
1423075.0
1423934.0
1424388.0
1425464.0
1425721.0
1424442.0
1421962.0
1421265.0
1421794.0
1422655.0
1423919.0
1425742.0
1425679.0
1426476.0
1427142.0
1427721.0
1425732.0
1425253.0
1425796.0
1427945.0
1429309.0
1429283.0
1431066.0
1433810.0
1434604.0
1434167.0
1432887.0
1432474.0
1431462.0
1432269.0
1433111.0
1434513.0
1433178.0
1433120.0
1434393.0
1433219.0
1432946.0
1430783.0
1430722.0
1430909.0
1431594.0
1432509.0
1432668.0
1432242.0
1432034.0
1431531.0
1430069.0
1429735.0
1429179.0
1429196.0
1431342.0
1431495.0
1431925.0
1431804.0
1432499.0
1431894.0
1431585.0
1429109.0
1428245.0
1428832.0
1429991.0
1430868.0
1431622.0
1431092.0
1431077.0
1431970.0
1430148.0
1428038.0
1426574.0
1427615.0
1428742.0
1428831.0
1429035.0
1429186.0
1428951.0
1429032.0
1428523.0
1425663.0
1423956.0
1423355.0
1423618.0
1424986.0
1424729.0
1423979.0
1423049.0
1423051.0
1420589.0
1417640.0
1415153.0
1414380.0
1415113.0
1415628.0
1415780.0
1415472.0
1415381.0
1415755.0
1413293.0
1410163.0
1407238.0
1405989.0
1407269.0
1408263.0
1408166.0
1406798.0
1405987.0
1406190.0
1405274.0
1400639.0
1397515.0
1395777.0
1396179.0
1397565.0
1396385.0
1395341.0
1394946.0
1395220.0
1392719.0
1388932.0
1385904.0
1384660.0
1384629.0
1385732.0
1386216.0
1386460.0
1386169.0
1385401.0
1384925.0
1383221.0
1378927.0
1377140.0
1377729.0
1380128.0
1380894.0
1379516.0
1379007.0
1378840.0
1378844.0
1376989.0
1373703.0
1371449.0
1371270.0
1372776.0
1374299.0
1375019.0
1374688.0
1375420.0
1376140.0
1374633.0
1371164.0
1368266.0
1368830.0
1370083.0
1372254.0
1373493.0
1374105.0
1374351.0
1375684.0
1373777.0
1370893.0
1368317.0
1368021.0
1369872.0
1371747.0
1372567.0
1372300.0
1372542.0
1374329.0
1373763.0
1371246.0
1367867.0
1367413.0
1368921.0
1371683.0
1372259.0
1372983.0
1374241.0
1376809.0
1377279.0
1374435.0
1373071.0
1372374.0
1373021.0
1375730.0
1377685.0
1378673.0
1379807.0
1381087.0
1382032.0
1381225.0
1379097.0
1378811.0
1379621.0
1380731.0
1383193.0
1385486.0
1386638.0
1387760.0
1388694.0
1390590.0
1389829.0
1387961.0
1387203.0
1389436.0
1391280.0
1394350.0
1394749.0
1396755.0
1397196.0
1397783.0
1395134.0
1392924.0
1391709.0
1392530.0
1395138.0
1398386.0
1400761.0
1402171.0
1403448.0
1404866.0
1406707.0
1408049.0
1407610.0
1406579.0
1406346.0
1407655.0
1409660.0
1411407.0
1412665.0
1413946.0
1414238.0
1415695.0
1416595.0
1415925.0
1414864.0
1414458.0
1415684.0
1417784.0
1419370.0
1419979.0
1420524.0
1420392.0
1420520.0
1421302.0
1417354.0
1413724.0
1419762.0
1436666.0
1453253.0
1453235.0
1446295.0
1438135.0
1432198.0
1427487.0
1428337.0
1425870.0
1422756.0
1406115.0
1388022.0
1374610.0
1365637.0
1358309.0
1355580.0
1356372.0
1356467.0
1357994.0
1360740.0
1364304.0
1364380.0
1359765.0
1354130.0
1347801.0
1341568.0
1335896.0
1333944.0
1334927.0
1337571.0
1338390.0
1339665.0
1341937.0
1344555.0
1348089.0
1350687.0
1354104.0
1356972.0
1360641.0
1363368.0
1367910.0
1364892.0
1326262.0
1576703.0
1585046.0
1639944.0
1628543.0
1620395.0
1663543.0
1685678.0
1703346.0
1711862.0
1718981.0
1725606.0
1733059.0
1737187.0
1735838.0
1726456.0
1732702.0
1731124.0
1774781.0
1785445.0
1787679.0
1794821.0
1795436.0
1794072.0
1793379.0
1787441.0
1786787.0
1796638.0
1807941.0
1826871.0
1857886.0
1923363.0
1958000.0
1978852.0
2017059.0
2035050.0
2040745.0
2036713.0
2033139.0
2027455.0
2015719.0
1998627.0
1979597.0
1963513.0
1952129.0
1944010.0
1939172.0
1934617.0
1941308.0
1926786.0
1915361.0
1900155.0
1883662.0
1875879.0
1872358.0
1873049.0
1874682.0
1871588.0
1868614.0
1867602.0
1864425.0
1857330.0
1845142.0
1834749.0
1830486.0
1832067.0
1834042.0
1833995.0
1833046.0
1834867.0
1837928.0
1838211.0
1830225.0
1820167.0
1813904.0
1810013.0
1806643.0
1806438.0
1810829.0
1816112.0
1819869.0
1819162.0
1809048.0
1789001.0
1769741.0
1759603.0
1759985.0
1761510.0
1764807.0
1770586.0
1777291.0
1784712.0
1793119.0
1793981.0
1786048.0
1777374.0
1771120.0
1771837.0
1775570.0
1775694.0
1774775.0
1777881.0
1785325.0
1793641.0
1794202.0
1790786.0
1789743.0
1791201.0
1795982.0
1800934.0
1801015.0
1803947.0
1807567.0
1812012.0
1817320.0
1814961.0
1810148.0
1805535.0
1806471.0
1811452.0
1818909.0
1826526.0
1833861.0
1833870.0
1834228.0
1839369.0
1843496.0
1838947.0
1827895.0
1818304.0
1809955.0
1803930.0
1800054.0
1802245.0
1803457.0
1808783.0
1813551.0
1817246.0
1814599.0
1809427.0
1807215.0
1808955.0
1813158.0
1817395.0
1820826.0
1821844.0
1822805.0
1825721.0
1833476.0
1837901.0
1834476.0
1833687.0
1840788.0
1852359.0
1859085.0
1865103.0
1872778.0
1881409.0
1885191.0
1888905.0
1891759.0
1888696.0
1887208.0
1890092.0
1898061.0
1905968.0
1914979.0
1922137.0
1928712.0
1934683.0
1938607.0
1937020.0
1932750.0
1932949.0
1938140.0
1945246.0
1951117.0
1951025.0
1946896.0
1938076.0
1932638.0
1931173.0
1927617.0
1921030.0
1916066.0
1915982.0
1920292.0
1926140.0
1928512.0
1932002.0
1934080.0
1934419.0
1934594.0
1928062.0
1919441.0
1915794.0
1922405.0
1931708.0
1939297.0
1947296.0
1954863.0
1958734.0
1961900.0
1965010.0
1962309.0
1959689.0
1957860.0
1959725.0
1961488.0
1963810.0
1966005.0
1967960.0
1970700.0
1975217.0
1980155.0
1979974.0
1979301.0
1980994.0
1984126.0
1986503.0
1987805.0
1990415.0
1996343.0
2002585.0
2007783.0
2009950.0
2008485.0
2005513.0
2003756.0
2005436.0
2009721.0
2014484.0
2017867.0
2021527.0
2024183.0
2028760.0
2029197.0
2024679.0
2020760.0
2019633.0
2021713.0
2024230.0
2029312.0
2033351.0
2032279.0
2030367.0
2031535.0
2031820.0
2031613.0
2028908.0
2029389.0
2032767.0
2038486.0
2040841.0
2039286.0
2035114.0
2031588.0
2025885.0
2016651.0
2007118.0
1999518.0
1996805.0
1996611.0
1996421.0
1995040.0
1994197.0
1995224.0
1998429.0
2000357.0
1997783.0
1996683.0
1997807.0
2000025.0
1996537.0
1989677.0
1989671.0
1995692.0
2002074.0
2002618.0
1995773.0
1985975.0
1976363.0
1971353.0
1972075.0
1973495.0
1974342.0
1975455.0
1973837.0
1970834.0
1967742.0
1963209.0
1956754.0
1955376.0
1955408.0
1955426.0
1955727.0
1956746.0
1959089.0
1962766.0
1964852.0
1961115.0
1955206.0
1952737.0
1948978.0
1946278.0
1948385.0
1949105.0
1949482.0
1946325.0
1944450.0
1944575.0
1941284.0
1936218.0
1932881.0
1934816.0
1939014.0
1942370.0
1943489.0
1944743.0
1946680.0
1943912.0
1940048.0
1938554.0
1938627.0
1939684.0
1940085.0
1941374.0
1940139.0
1937756.0
1938678.0
1938745.0
1940323.0
1937096.0
1936572.0
1937974.0
1941561.0
1945883.0
1945608.0
1944082.0
1938628.0
1933991.0
1930372.0
1926968.0
1920690.0
1914900.0
1912776.0
1913528.0
1917255.0
1922044.0
1924078.0
1923605.0
1923417.0
1925224.0
1922143.0
1916292.0
1912398.0
1912969.0
1914369.0
1914679.0
1915195.0
1915725.0
1915763.0
1916122.0
1916388.0
1911469.0
1907603.0
1906099.0
1906956.0
1909219.0
1914382.0
1914382.0
1914306.0
1914452.0
1915622.0
1904221.0
1898536.0
1899270.0
1901224.0
1897410.0
1889102.0
1881294.0
1877017.0
1875514.0
1871012.0
1863974.0
1859072.0
1858245.0
1857951.0
1856269.0
1854378.0
1851919.0
1850820.0
1848021.0
1843030.0
1834975.0
1826948.0
1822323.0
1821695.0
1821689.0
1822866.0
1824216.0
1826215.0
1829286.0
1828232.0
1822962.0
1818420.0
1817709.0
1818126.0
1819908.0
1821778.0
1822054.0
1821567.0
1823841.0
1826214.0
1824898.0
1821792.0
1820443.0
1820708.0
1821832.0
1824915.0
1828086.0
1831690.0
1835277.0
1837912.0
1839582.0
1837307.0
1830814.0
1824412.0
1824011.0
1826301.0
1827486.0
1822933.0
1817409.0
1812995.0
1809422.0
1804897.0
1798040.0
1792708.0
1788740.0
1786987.0
1786412.0
1785559.0
1784175.0
1783508.0
1783291.0
1782315.0
1778677.0
1773389.0
1768319.0
1765988.0
1765147.0
1764590.0
1766758.0
1770379.0
1773436.0
1776895.0
1780745.0
1782619.0
1780393.0
1779433.0
1779226.0
1778903.0
1778502.0
1780175.0
1780810.0
1781938.0
1782053.0
1779192.0
1775643.0
1773174.0
1773492.0
1776991.0
1783491.0
1789996.0
1796921.0
1800467.0
1800013.0
1797445.0
1794023.0
1791297.0
1789122.0
1787435.0
1785441.0
1780129.0
1777658.0
1775619.0
1774924.0
1774425.0
1773426.0
1770485.0
1764261.0
1760089.0
1758290.0
1756121.0
1755448.0
1754903.0
1753989.0
1753381.0
1752991.0
1752124.0
1749315.0
1744383.0
1740947.0
1741572.0
1743614.0
1746687.0
1750233.0
1751859.0
1750290.0
1749129.0
1749069.0
1749528.0
1748346.0
1744949.0
1741982.0
1740818.0
1740654.0
1741882.0
1742586.0
1743199.0
1742305.0
1742027.0
1742885.0
1742858.0
1740709.0
1736210.0
1734866.0
1734629.0
1736560.0
1737347.0
1736220.0
1735235.0
1735912.0
1736309.0
1738535.0
1736758.0
1730165.0
1723064.0
1717562.0
1713179.0
1710218.0
1706636.0
1704395.0
1702321.0
1700852.0
1701077.0
1701375.0
1697103.0
1692229.0
1689167.0
1686717.0
1686663.0
1684440.0
1682591.0
1680742.0
1679970.0
1679364.0
1681438.0
1679174.0
1676354.0
1672177.0
1672138.0
1673735.0
1677729.0
1680787.0
1681774.0
1681386.0
1681290.0
1679981.0
1678598.0
1676281.0
1673567.0
1672077.0
1672729.0
1676019.0
1677838.0
1680424.0
1679499.0
1677577.0
1679252.0
1685150.0
1685772.0
1684041.0
1680609.0
1678584.0
1675341.0
1671417.0
1668160.0
1665258.0
1664382.0
1662986.0
1662401.0
1657826.0
1653718.0
1649832.0
1647167.0
1647644.0
1647540.0
1645281.0
1644235.0
1643500.0
1644790.0
1646183.0
1648535.0
1647913.0
1645858.0
1647547.0
1649948.0
1655832.0
1661968.0
1663708.0
1661996.0
1660084.0
1658917.0
1656295.0
1653031.0
1651354.0
1650437.0
1651114.0
1651390.0
1651444.0
1651808.0
1652018.0
1653945.0
1656857.0
1656864.0
1655365.0
1655820.0
1659411.0
1664185.0
1665103.0
1660664.0
1655669.0
1651426.0
1648819.0
1645466.0
1640271.0
1632992.0
1627205.0
1624746.0
1622446.0
1621450.0
1619879.0
1619031.0
1615574.0
1613311.0
1610799.0
1605724.0
1600093.0
1595242.0
1593478.0
1596284.0
1598922.0
1600495.0
1601589.0
1603666.0
1606502.0
1608866.0
1606106.0
1599078.0
1594500.0
1591773.0
1590045.0
1589626.0
1589269.0
1589193.0
1590219.0
1591007.0
1592294.0
1591025.0
1588032.0
1587989.0
1589298.0
1591522.0
1590343.0
1589615.0
1591902.0
1595221.0
1595261.0
1593161.0
1587977.0
1582932.0
1578997.0
1576530.0
1572723.0
1569782.0
1567888.0
1566905.0
1565205.0
1563030.0
1556909.0
1549600.0
1544462.0
1539603.0
1538575.0
1537502.0
1535852.0
1535686.0
1537954.0
1537407.0
1535896.0
1533240.0
1528175.0
1524372.0
1524747.0
1528477.0
1533340.0
1536258.0
1536467.0
1533127.0
1529121.0
1525769.0
1520074.0
1514074.0
1511227.0
1511073.0
1513132.0
1517143.0
1520444.0
1522924.0
1524738.0
1525896.0
1521283.0
1515954.0
1514149.0
1518859.0
1525518.0
1528270.0
1527296.0
1523343.0
1521364.0
1520953.0
1520003.0
1518571.0
1515398.0
1511414.0
1509132.0
1508555.0
1508613.0
1507692.0
1506776.0
1505984.0
1504433.0
1507627.0
1512640.0
1513923.0
1513398.0
1514319.0
1516333.0
1518469.0
1519450.0
1519010.0
1520416.0
1520776.0
1522605.0
1520233.0
1515732.0
1510778.0
1507768.0
1506981.0
1508412.0
1509714.0
1510488.0
1512977.0
1517414.0
1522916.0
1526777.0
1525306.0
1520648.0
1516565.0
1516928.0
1518476.0
1521695.0
1524198.0
1525374.0
1525490.0
1525881.0
1524973.0
1521601.0
1517661.0
1517073.0
1516981.0
1518359.0
1520702.0
1521467.0
1522746.0
1522330.0
1521746.0
1518131.0
1514283.0
1512203.0
1512605.0
1514144.0
1515975.0
1517115.0
1516657.0
1515759.0
1516069.0
1517118.0
1519918.0
1521567.0
1522699.0
1524377.0
1524566.0
1522284.0
1519531.0
1518294.0
1518818.0
1519315.0
1520484.0
1521289.0
1521051.0
1520836.0
1522873.0
1524110.0
1523331.0
1522255.0
1523373.0
1527062.0
1531493.0
1532490.0
1532803.0
1529929.0
1527994.0
1527903.0
1528945.0
1529036.0
1528267.0
1527704.0
1527582.0
1529321.0
1530966.0
1530646.0
1526875.0
1522683.0
1518574.0
1519205.0
1523572.0
1532049.0
1536503.0
1537135.0
1536933.0
1538040.0
1536548.0
1533193.0
1530955.0
1529497.0
1531131.0
1533667.0
1536012.0
1536731.0
1535603.0
1533512.0
1531950.0
1531096.0
1527605.0
1525120.0
1522827.0
1524117.0
1528237.0
1531556.0
1535480.0
1537544.0
1535617.0
1534511.0
1534700.0
1533453.0
1532704.0
1531710.0
1531030.0
1532378.0
1535077.0
1537774.0
1539155.0
1539395.0
1539347.0
1539593.0
1537257.0
1534468.0
1531715.0
1530723.0
1531177.0
1531111.0
1531791.0
1531014.0
1531603.0
1534135.0
1536942.0
1536203.0
1533795.0
1531865.0
1531923.0
1531844.0
1530666.0
1528884.0
1527402.0
1528936.0
1530875.0
1531361.0
1527964.0
1523644.0
1521004.0
1518601.0
1514919.0
1513076.0
1512836.0
1512995.0
1513561.0
1514264.0
1511703.0
1506873.0
1504296.0
1503750.0
1506314.0
1507032.0
1504750.0
1501437.0
1501816.0
1504641.0
1507202.0
1503821.0
1499688.0
1498340.0
1499845.0
1502431.0
1502880.0
1503155.0
1502791.0
1501867.0
1500541.0
1499828.0
1497275.0
1496574.0
1495685.0
1496095.0
1498591.0
1502620.0
1507376.0
1510143.0
1512943.0
1514171.0
1510645.0
1505303.0
1502188.0
1501501.0
1501753.0
1503189.0
1504267.0
1505581.0
1507357.0
1509583.0
1511646.0
1510083.0
1505352.0
1499526.0
1498333.0
1501122.0
1505440.0
1507303.0
1508008.0
1508366.0
1509828.0
1510314.0
1509308.0
1505885.0
1503332.0
1504269.0
1504504.0
1505837.0
1504689.0
1503652.0
1505538.0
1511433.0
1518715.0
1522725.0
1519791.0
1516593.0
1515658.0
1517102.0
1519317.0
1520222.0
1522078.0
1524436.0
1526647.0
1528041.0
1525470.0
1520899.0
1519124.0
1520891.0
1524729.0
1524763.0
1522846.0
1522455.0
1524001.0
1526303.0
1526516.0
1523050.0
1519573.0
1515101.0
1513483.0
1513544.0
1514956.0
1515780.0
1514333.0
1514616.0
1515459.0
1514655.0
1510082.0
1505698.0
1505531.0
1506888.0
1509346.0
1510332.0
1509273.0
1506499.0
1504425.0
1503106.0
1503333.0
1502472.0
1502014.0
1502157.0
1504387.0
1506370.0
1506658.0
1504873.0
1502770.0
1503581.0
1507981.0
1511752.0
1513642.0
1510898.0
1508655.0
