,0,1,2,3,4,5,6,7,8,9,10,11,12,13,14,15,16,17,18,19,20,21,22,23,24,25,26,27,28,29,30,31,32,33,34,35,36,37,38,39,40,41,42,43,44,45,46,47,48,49,50,51,52,53,54,55,56,57,58,59,60,61,62,63,64,65,66,67,68,69,70,71,72,73,74,75,76,77,78,79,80,81,82,83,84,85,86,87,88,89,90,91,92,93,94,95,96,97,98,99,100,101,102,103,104,105,106,107,108,109,110,111,112,113,114,115,116,117,118,119,120,121,122,123,124,125,126,127,128,129,130,131,132,133,134,135,136,137,138,139,140,141,142,143,144,145,146,147,148,149,150,151,152,153,154,155,156,157,158,159,160,161,162,163,164,165,166,167,168,169,170,171,172,173,174,175,176,177,178,179,180,181,182,183,184,185,186,187,188,189,190,191,192,193,194,195,196,197,198,199,200,201,202,203,204,205,206,207,208,209,210,211,212,213,214,215,216,217,218,219,220,221,222,223,224,225,226,227,228,229,230,231,232,233,234,235,236,237,238,239,240,241,242,243,244,245,246,247,248,249,250,251,252,253,254,255,256,257,258,259,260,261,262,263,264,265,266,267,268,269,270,271,272,273,274,275,276,277,278,279,280,281,282,283,284,285,286,287,288,289,290,291,292,293,294,295,296,297,298,299,300,301,302,303,304,305,306,307,308,309,310,311,312,313,314,315,316,317,318,319,320,321,322,323,324,325,326,327,328,329,330,331,332,333,334,335,336,337,338,339,340,341,342,343,344,345,346,347,348,349,350,351,352,353,354,355,356,357,358,359,360,361,362,363,364,365,366,367,368,369,370,371,372,373,374,375,376,377,378,379,380,381,382,383,384,385,386,387,388,389,390,391,392,393,394,395,396,397,398,399,400,401,402,403,404,405,406,407,408,409,410,411,412,413,414,415,416,417,418,419,420,421,422,423,424,425,426,427,428,429,430,431,432,433,434,435,436,437,438,439,440,441,442,443,444,445,446,447,448,449,450,451,452,453,454,455,456,457,458,459,460,461,462,463,464,465,466,467,468,469,470,471,472,473,474,475,476,477,478,479,480,481,482,483,484,485,486,487,488,489,490,491,492,493,494,495,496,497,498,499,500,501,502,503,504,505,506,507,508,509,510,511,512,513,514,515,516,517,518,519,520,521,522,523,524,525,526,527,528,529,530,531,532,533,534,535,536,537,538,539,540,541,542,543,544,545,546,547,548,549,550,551,552,553,554,555,556,557,558,559,560,561,562,563,564,565,566,567,568,569,570,571,572,573,574,575,576,577,578,579,580,581,582,583,584,585,586,587,588,589,590,591,592,593,594,595,596,597,598,599,600,601,602,603,604,605,606,607,608,609,610,611,612,613,614,615,616,617,618,619,620,621,622,623,624,625,626,627,628,629,630,631,632,633,634,635,636,637,638,639,640,641,642,643,644,645,646,647,648,649,650,651,652,653,654,655,656,657,658,659,660,661,662,663,664,665,666,667,668,669,670,671,672,673,674,675,676,677,678,679,680,681,682,683,684,685,686,687,688,689,690,691,692,693,694,695,696,697,698,699,700,701,702,703,704,705,706,707,708,709,710,711,712,713,714,715,716,717,718,719,720,721,722,723,724,725,726,727,728,729,730,731,732,733,734,735,736,737,738,739,740,741,742,743,744,745,746,747,748,749,750,751,752,753,754,755,756,757,758,759,760,761,762,763,764,765,766,767,768,769,770,771,772,773,774,775,776,777,778,779,780,781,782,783,784,785,786,787,788,789,790,791,792,793,794,795,796,797,798,799,800,801,802,803,804,805,806,807,808,809,810,811,812,813,814,815,816,817,818,819,820,821,822,823,824,825,826,827,828,829,830,831,832,833,834,835,836,837,838,839,840,841,842,843,844,845,846,847,848,849,850,851,852,853,854,855,856,857,858,859,860,861,862,863,864,865,866,867,868,869,870,871,872,873,874,875,876,877,878,879,880,881,882,883,884,885,886,887,888,889,890,891,892,893,894,895,896,897,898,899,900,901,902,903,904,905,906,907,908,909,910,911,912,913,914,915,916,917,918,919,920,921,922,923,924,925,926,927,928,929,930,931,932,933,934,935,936,937,938,939,940,941,942,943,944,945,946,947,948,949,950,951,952,953,954,955,956,957,958,959,960,961,962,963,964,965,966,967,968,969,970,971,972,973,974,975,976,977,978,979,980,981,982,983,984,985,986,987,988,989,990,991,992,993,994,995,996,997,998,999,1000,1001,1002,1003,1004,1005,1006,1007,1008,1009,1010,1011,1012,1013,1014,1015,1016,1017,1018,1019,1020,1021,1022,1023,1024,1025,1026,1027,1028,1029,1030,1031,1032,1033,1034,1035,1036,1037,1038,1039,1040,1041,1042,1043,1044,1045,1046,1047,1048,1049,1050,1051,1052,1053,1054,1055,1056,1057,1058,1059,1060,1061,1062,1063,1064,1065,1066,1067,1068,1069,1070,1071,1072,1073,1074,1075,1076,1077,1078,1079,1080,1081,1082,1083,1084,1085,1086,1087,1088,1089,1090,1091,1092,1093,1094,1095,1096,1097,1098,1099,1100,1101,1102,1103,1104,1105,1106,1107,1108,1109,1110,1111,1112,1113,1114,1115,1116,1117,1118,1119,1120,1121,1122,1123,1124,1125,1126,1127,1128,1129,1130,1131,1132,1133,1134,1135,1136,1137,1138,1139,1140,1141,1142,1143,1144,1145,1146,1147,1148,1149,1150,1151,1152,1153,1154,1155,1156,1157,1158,1159,1160,1161,1162,1163,1164,1165,1166,1167,1168,1169,1170,1171,1172,1173,1174,1175,1176,1177,1178,1179,1180,1181,1182,1183,1184,1185,1186,1187,1188,1189,1190,1191,1192,1193,1194,1195,1196,1197,1198,1199,1200,1201,1202,1203,1204,1205,1206,1207,1208,1209,1210,1211,1212,1213,1214,1215,1216,1217,1218,1219,1220,1221,1222,1223,1224,1225,1226,1227,1228,1229,1230,1231,1232,1233,1234,1235,1236,1237,1238,1239,1240,1241,1242,1243,1244,1245,1246,1247,1248,1249,1250,1251,1252,1253,1254,1255,1256,1257,1258,1259,1260,1261,1262,1263,1264,1265,1266,1267,1268,1269,1270,1271,1272,1273,1274,1275,1276,1277,1278,1279,1280,1281,1282,1283,1284,1285,1286,1287,1288,1289,1290,1291,1292,1293,1294,1295,1296,1297,1298,1299,1300,1301,1302,1303,1304,1305,1306,1307,1308,1309,1310,1311,1312,1313,1314,1315,1316,1317,1318,1319,1320,1321,1322,1323,1324,1325,1326,1327,1328,1329,1330,1331,1332,1333,1334,1335,1336,1337,1338,1339,1340,1341,1342,1343,1344,1345,1346,1347,1348,1349,1350,1351,1352,1353,1354,1355,1356,1357,1358,1359,1360,1361,1362,1363,1364,1365,1366,1367,1368,1369,1370,1371,1372,1373,1374,1375,1376,1377,1378,1379,1380,1381,1382,1383,1384,1385,1386,1387,1388,1389,1390,1391,1392,1393,1394,1395,1396,1397,1398,1399,1400,1401,1402,1403,1404,1405,1406,1407,1408,1409,1410,1411,1412,1413,1414,1415,1416,1417,1418,1419,1420,1421,1422,1423,1424,1425,1426,1427,1428,1429,1430,1431,1432,1433,1434,1435,1436,1437,1438,1439,1440,1441,1442,1443,1444,1445,1446,1447,1448,1449,1450,1451,1452,1453,1454,1455,1456,1457,1458,1459,1460,1461,1462,1463,1464,1465,1466,1467,1468,1469,1470,1471,1472,1473,1474,1475,1476,1477,1478,1479,1480,1481,1482,1483,1484,1485,1486,1487,1488,1489,1490,1491,1492,1493,1494,1495,1496,1497,1498,1499,1500,1501,1502,1503,1504,1505,1506,1507,1508,1509,1510,1511,1512,1513,1514,1515,1516,1517,1518,1519,1520,1521,1522,1523,1524,1525,1526,1527,1528,1529,1530,1531,1532,1533,1534,1535,1536,1537,1538,1539,1540,1541,1542,1543,1544,1545,1546,1547,1548,1549,1550,1551,1552,1553,1554,1555,1556,1557,1558,1559,1560,1561,1562,1563,1564,1565,1566,1567,1568,1569,1570,1571,1572,1573,1574,1575,1576,1577,1578,1579,1580,1581,1582,1583,1584,1585,1586,1587,1588,1589,1590,1591,1592,1593,1594,1595,1596,1597,1598,1599,1600,1601,1602,1603,1604,1605,1606,1607,1608,1609,1610,1611,1612,1613,1614,1615,1616,1617,1618,1619,1620,1621,1622,1623,1624,1625,1626,1627,1628,1629,1630,1631,1632,1633,1634,1635,1636,1637,1638,1639,1640,1641,1642,1643,1644,1645,1646,1647,1648,1649,1650,1651,1652,1653,1654,1655,1656,1657,1658,1659,1660,1661,1662,1663,1664,1665,1666,1667,1668,1669,1670,1671,1672,1673,1674,1675,1676,1677,1678,1679,1680,1681,1682,1683,1684,1685,1686,1687,1688,1689,1690,1691,1692,1693,1694,1695,1696,1697,1698,1699,1700,1701,1702,1703,1704,1705,1706,1707,1708,1709,1710,1711,1712,1713,1714,1715,1716,1717,1718,1719,1720,1721,1722,1723,1724,1725,1726,1727,1728,1729,1730,1731,1732,1733,1734,1735,1736,1737,1738,1739,1740,1741,1742,1743,1744,1745,1746,1747,1748,1749,1750,1751,1752,1753,1754,1755,1756,1757,1758,1759,1760,1761,1762,1763,1764,1765,1766,1767,1768,1769,1770,1771,1772,1773,1774,1775,1776,1777,1778,1779,1780,1781,1782,1783,1784,1785,1786,1787,1788,1789,1790,1791,1792,1793,1794,1795,1796,1797,1798,1799,1800,1801,1802,1803,1804,1805,1806,1807,1808,1809,1810,1811,1812,1813,1814,1815,1816,1817,1818,1819,1820,1821,1822,1823,1824,1825,1826,1827,1828,1829,1830,1831,1832,1833,1834,1835,1836,1837,1838,1839,1840,1841,1842,1843,1844,1845,1846,1847,1848,1849,1850,1851,1852,1853,1854,1855,1856,1857,1858,1859,1860,1861,1862,1863,1864,1865,1866,1867,1868,1869,1870,1871,1872,1873,1874,1875,1876,1877,1878,1879,1880,1881,1882,1883,1884,1885,1886,1887,1888,1889,1890,1891,1892,1893,1894,1895,1896,1897,1898,1899,1900,1901,1902,1903,1904,1905,1906,1907,1908,1909,1910,1911,1912,1913,1914,1915,1916,1917,1918,1919,1920,1921,1922,1923,1924,1925,1926,1927,1928,1929,1930,1931,1932,1933,1934,1935,1936,1937,1938,1939,1940,1941,1942,1943,1944,1945,1946,1947,1948,1949,1950,1951,1952,1953,1954,1955,1956,1957,1958,1959,1960,1961,1962,1963,1964,1965,1966,1967,1968,1969,1970,1971,1972,1973,1974,1975,1976,1977,1978,1979,1980,1981,1982,1983,1984,1985,1986,1987,1988,1989,1990,1991,1992,1993,1994,1995,1996,1997,1998,1999,2000,2001,2002,2003,2004,2005,2006,2007,2008,2009,2010,2011,2012,2013,2014,2015,2016,2017,2018,2019,2020,2021,2022,2023,2024,2025,2026,2027,2028,2029,2030,2031,2032,2033,2034,2035,2036,2037,2038,2039,2040,2041,2042,2043,2044,2045,2046,2047,2048,2049,2050,2051,2052,2053,2054,2055,2056,2057,2058,2059,2060,2061,2062,2063,2064,2065,2066,2067,2068,2069,2070,2071,2072,2073,2074,2075,2076,2077,2078,2079,2080,2081,2082,2083,2084,2085,2086,2087,2088,2089,2090,2091,2092,2093,2094,2095,2096,2097,2098,2099,2100,2101,2102,2103,2104,2105,2106,2107,2108,2109,2110,2111,2112,2113,2114,2115,2116,2117,2118,2119,2120,2121,2122,2123,2124,2125,2126,2127,2128,2129,2130,2131,2132,2133,2134,2135,2136,2137,2138,2139,2140,2141,2142,2143,2144,2145,2146,2147,2148,2149,2150,2151,2152,2153,2154,2155,2156,2157,2158,2159,2160,2161,2162,2163,2164,2165,2166,2167,2168,2169,2170,2171,2172,2173,2174,2175,2176,2177,2178,2179,2180,2181,2182,2183,2184,2185,2186,2187,2188,2189,2190,2191,2192,2193,2194,2195,2196,2197,2198,2199,2200,2201,2202,2203,2204,2205,2206,2207,2208,2209,2210,2211,2212,2213,2214,2215,2216,2217,2218,2219,2220,2221,2222,2223,2224,2225,2226,2227,2228,2229,2230,2231,2232,2233,2234,2235,2236,2237,2238,2239,2240,2241,2242,2243,2244,2245,2246,2247,2248,2249,2250,2251,2252,2253,2254,2255,2256,2257,2258,2259,2260,2261,2262,2263,2264,2265,2266,2267,2268,2269,2270,2271,2272,2273,2274,2275,2276,2277,2278,2279,2280,2281,2282,2283,2284,2285,2286,2287,2288,2289,2290,2291,2292,2293,2294,2295,2296,2297,2298,2299,2300,2301,2302,2303,2304,2305,2306,2307,2308,2309,2310,2311,2312,2313,2314,2315,2316,2317,2318,2319,2320,2321,2322,2323,2324,2325,2326,2327,2328,2329,2330,2331,2332,2333,2334,2335,2336,2337,2338,2339,2340,2341,2342,2343,2344,2345,2346,2347,2348,2349,2350,2351,2352,2353,2354,2355,2356,2357,2358,2359,2360,2361,2362,2363,2364,2365,2366,2367,2368,2369,2370,2371,2372,2373,2374,2375,2376,2377,2378,2379,2380,2381,2382,2383,2384,2385,2386,2387,2388,2389,2390,2391,2392,2393,2394,2395,2396,2397,2398,2399,2400,2401,2402,2403,2404,2405,2406,2407,2408,2409,2410,2411,2412,2413,2414,2415,2416,2417,2418,2419,2420,2421,2422,2423,2424,2425,2426,2427,2428,2429,2430,2431,2432,2433,2434,2435,2436,2437,2438,2439,2440,2441,2442,2443,2444,2445,2446,2447,2448,2449,2450,2451,2452,2453,2454,2455,2456,2457,2458,2459,2460,2461,2462,2463,2464,2465,2466,2467,2468,2469,2470,2471,2472,2473,2474,2475,2476,2477,2478,2479,2480,2481,2482,2483,2484,2485,2486,2487,2488,2489,2490,2491,2492,2493,2494,2495,2496,2497,2498,2499,2500,2501,2502,2503,2504,2505,2506,2507,2508,2509,2510,2511,2512,2513,2514,2515,2516,2517,2518,2519,2520,2521,2522,2523,2524,2525,2526,2527,2528,2529,2530,2531,2532,2533,2534,2535,2536,2537,2538,2539,2540,2541,2542,2543,2544,2545,2546,2547,2548,2549,2550,2551,2552,2553,2554,2555,2556,2557,2558,2559,2560,2561,2562,2563,2564,2565,2566,2567,2568,2569,2570,2571,2572,2573,2574,2575,2576,2577,2578,2579,2580,2581,2582,2583,2584,2585,2586,2587,2588,2589,2590,2591,2592,2593,2594,2595,2596,2597,2598,2599,2600,2601,2602,2603,2604,2605,2606,2607,2608,2609,2610,2611,2612,2613,2614,2615,2616,2617,2618,2619,2620,2621,2622,2623,2624,2625,2626,2627,2628,2629,2630,2631,2632,2633,2634,2635,2636,2637,2638,2639,2640,2641,2642,2643,2644,2645,2646,2647,2648,2649,2650,2651,2652,2653,2654,2655,2656,2657,2658,2659,2660,2661,2662,2663,2664,2665,2666,2667,2668,2669,2670,2671,2672,2673,2674,2675,2676,2677,2678,2679,2680,2681,2682,2683,2684,2685,2686,2687,2688,2689,2690,2691,2692,2693,2694,2695,2696,2697,2698,2699,2700,2701,2702,2703,2704,2705,2706,2707,2708,2709,2710,2711,2712,2713,2714,2715,2716,2717,2718,2719,2720,2721,2722,2723,2724,2725,2726,2727,2728,2729,2730,2731,2732,2733,2734,2735,2736,2737,2738,2739,2740,2741,2742,2743,2744,2745,2746,2747,2748,2749,2750,2751,2752,2753,2754,2755,2756,2757,2758,2759,2760,2761,2762,2763,2764,2765,2766,2767,2768,2769,2770,2771,2772,2773,2774,2775,2776,2777,2778,2779,2780,2781,2782,2783,2784,2785,2786,2787,2788,2789,2790,2791,2792,2793,2794,2795,2796,2797,2798,2799,2800,2801,2802,2803,2804,2805,2806,2807,2808,2809,2810,2811,2812,2813,2814,2815,2816,2817,2818,2819,2820,2821,2822,2823,2824,2825,2826,2827,2828,2829,2830,2831,2832,2833,2834,2835,2836,2837,2838,2839,2840,2841,2842,2843,2844,2845,2846,2847,2848,2849,2850,2851,2852,2853,2854,2855,2856,2857,2858,2859,2860,2861,2862,2863,2864,2865,2866,2867,2868,2869,2870,2871,2872,2873,2874,2875,2876,2877,2878,2879,2880,2881,2882,2883,2884,2885,2886,2887,2888,2889,2890,2891,2892,2893,2894,2895,2896,2897,2898,2899,2900,2901,2902,2903,2904,2905,2906,2907,2908,2909,2910,2911,2912,2913,2914,2915,2916,2917,2918,2919,2920,2921,2922,2923,2924,2925,2926,2927,2928,2929,2930,2931,2932,2933,2934,2935,2936,2937,2938,2939,2940,2941,2942,2943,2944,2945,2946,2947,2948,2949,2950,2951,2952,2953,2954,2955,2956,2957,2958,2959,2960,2961,2962,2963,2964,2965,2966,2967,2968,2969,2970,2971,2972,2973,2974,2975,2976,2977,2978,2979,2980,2981,2982,2983,2984,2985,2986,2987,2988,2989,2990,2991,2992,2993,2994,2995,2996,2997,2998,2999,3000,3001,3002,3003,3004,3005,3006,3007,3008,3009,3010,3011,3012,3013,3014,3015,3016,3017,3018,3019,3020,3021,3022,3023,3024,3025,3026,3027,3028,3029,3030,3031,3032,3033,3034,3035,3036,3037,3038,3039,3040,3041,3042,3043,3044,3045,3046,3047,3048,3049,3050,3051,3052,3053,3054,3055,3056,3057,3058,3059,3060,3061,3062,3063,3064,3065,3066,3067,3068,3069,3070,3071,3072,3073,3074,3075,3076,3077,3078,3079,3080,3081,3082,3083,3084,3085,3086,3087,3088,3089,3090,3091,3092,3093,3094,3095,3096,3097,3098,3099,3100,3101,3102,3103,3104,3105,3106,3107,3108,3109,3110,3111,3112,3113,3114,3115,3116,3117,3118,3119,3120,3121,3122,3123,3124,3125,3126,3127,3128,3129,3130,3131,3132,3133,3134,3135,3136,3137,3138,3139,3140,3141,3142,3143,3144,3145,3146,3147,3148,3149,3150,3151,3152,3153,3154,3155,3156,3157,3158,3159,3160,3161,3162,3163,3164,3165,3166,3167,3168,3169,3170,3171,3172,3173,3174,3175,3176,3177,3178,3179,3180,3181,3182,3183,3184,3185,3186,3187,3188,3189,3190,3191,3192,3193,3194,3195,3196,3197,3198,3199,3200,3201,3202,3203,3204,3205,3206,3207,3208,3209,3210,3211,3212,3213,3214,3215,3216,3217,3218,3219,3220,3221,3222,3223,3224,3225,3226,3227,3228,3229,3230,3231,3232,3233,3234,3235,3236,3237,3238,3239,3240,3241,3242,3243,3244,3245,3246,3247,3248,3249,3250,3251,3252,3253,3254,3255,3256,3257,3258,3259,3260,3261,3262,3263,3264,3265,3266,3267,3268,3269,3270,3271,3272,3273,3274,3275,3276,3277,3278,3279,3280,3281,3282,3283,3284,3285,3286,3287,3288,3289,3290,3291,3292,3293,3294,3295,3296,3297,3298,3299,3300,3301,3302,3303,3304,3305,3306,3307,3308,3309,3310,3311,3312,3313,3314,3315,3316,3317,3318,3319,3320,3321,3322,3323,3324,3325,3326,3327,3328,3329,3330,3331,3332,3333,3334,3335,3336,3337,3338,3339,3340,3341,3342,3343,3344,3345,3346,3347,3348,3349,3350,3351,3352,3353,3354,3355,3356,3357,3358,3359,3360,3361,3362,3363,3364,3365,3366,3367,3368,3369,3370,3371,3372,3373,3374,3375,3376,3377,3378,3379,3380,3381,3382,3383,3384,3385,3386,3387,3388,3389,3390,3391,3392,3393,3394,3395,3396,3397,3398,3399,3400,3401,3402,3403,3404,3405,3406,3407,3408,3409,3410,3411,3412,3413,3414,3415,3416,3417,3418,3419,3420,3421,3422,3423,3424,3425,3426,3427,3428,3429,3430,3431,3432,3433,3434,3435,3436,3437,3438,3439,3440,3441,3442,3443,3444,3445,3446,3447,3448,3449,3450,3451,3452,3453,3454,3455,3456,3457,3458,3459,3460,3461,3462,3463,3464,3465,3466,3467,3468,3469,3470,3471,3472,3473,3474,3475,3476,3477,3478,3479,3480,3481,3482,3483,3484,3485,3486,3487,3488,3489,3490,3491,3492,3493,3494,3495,3496,3497,3498,3499,3500,3501,3502,3503,3504,3505,3506,3507,3508,3509,3510,3511,3512,3513,3514,3515,3516,3517,3518,3519,3520,3521,3522,3523,3524,3525,3526,3527,3528,3529,3530,3531,3532,3533,3534,3535,3536,3537,3538,3539,3540,3541,3542,3543,3544,3545,3546,3547,3548,3549,3550,3551,3552,3553,3554,3555,3556,3557,3558,3559,3560,3561,3562,3563,3564,3565,3566,3567,3568,3569,3570,3571,3572,3573,3574,3575,3576,3577,3578,3579,3580,3581,3582,3583,3584,3585,3586,3587,3588,3589,3590,3591,3592,3593,3594,3595,3596,3597,3598,3599,3600,3601,3602,3603,3604,3605,3606,3607,3608,3609,3610,3611,3612,3613,3614,3615,3616,3617,3618,3619,3620,3621,3622,3623,3624,3625,3626,3627,3628,3629,3630,3631,3632,3633,3634,3635,3636,3637,3638,3639,3640,3641,3642,3643,3644,3645,3646,3647,3648,3649,3650,3651,3652,3653,3654,3655,3656,3657,3658,3659,3660,3661,3662,3663,3664,3665,3666,3667,3668,3669,3670,3671,3672,3673,3674,3675,3676,3677,3678,3679,3680,3681,3682,3683,3684,3685,3686,3687,3688,3689,3690,3691,3692,3693,3694,3695,3696,3697,3698,3699,3700,3701,3702,3703,3704,3705,3706,3707,3708,3709,3710,3711,3712,3713,3714,3715,3716,3717,3718,3719,3720,3721,3722,3723,3724,3725,3726,3727,3728,3729,3730,3731,3732,3733,3734,3735,3736,3737,3738,3739,3740,3741,3742,3743,3744,3745,3746,3747,3748,3749,3750,3751,3752,3753,3754,3755,3756,3757,3758,3759,3760,3761,3762,3763,3764,3765,3766,3767,3768,3769,3770,3771,3772,3773,3774,3775,3776,3777,3778,3779,3780,3781,3782,3783,3784,3785,3786,3787,3788,3789,3790,3791,3792,3793,3794,3795,3796,3797,3798,3799,3800,3801,3802,3803,3804,3805,3806,3807,3808,3809,3810,3811,3812,3813,3814,3815,3816,3817,3818,3819,3820,3821,3822,3823,3824,3825,3826,3827,3828,3829,3830,3831,3832,3833,3834,3835,3836,3837,3838,3839,3840,3841,3842,3843,3844,3845,3846,3847,3848,3849,3850,3851,3852,3853,3854,3855,3856,3857,3858,3859,3860,3861,3862,3863,3864,3865,3866,3867,3868,3869,3870,3871,3872,3873,3874,3875,3876,3877,3878,3879,3880,3881,3882,3883,3884,3885,3886,3887,3888,3889,3890,3891,3892,3893,3894,3895,3896,3897,3898,3899,3900,3901,3902,3903,3904,3905,3906,3907,3908,3909,3910,3911,3912,3913,3914,3915,3916,3917,3918,3919,3920,3921,3922,3923,3924,3925,3926,3927,3928,3929,3930,3931,3932,3933,3934,3935,3936,3937,3938,3939,3940,3941,3942,3943,3944,3945,3946,3947,3948,3949,3950,3951,3952,3953,3954,3955,3956,3957,3958,3959,3960,3961,3962,3963,3964,3965,3966,3967,3968,3969,3970,3971,3972,3973,3974,3975,3976,3977,3978,3979,3980,3981,3982,3983,3984,3985,3986,3987,3988,3989,3990,3991,3992,3993,3994,3995,3996,3997,3998,3999,4000,4001,4002,4003,4004,4005,4006,4007,4008,4009,4010,4011,4012,4013,4014,4015,4016,4017,4018,4019,4020,4021,4022,4023,4024,4025,4026,4027,4028,4029,4030,4031,4032,4033,4034,4035,4036,4037,4038,4039,4040,4041,4042,4043,4044,4045,4046,4047,4048,4049,4050,4051,4052,4053,4054,4055,4056,4057,4058,4059,4060,4061,4062,4063,4064,4065,4066,4067,4068,4069,4070,4071,4072,4073,4074,4075,4076,4077,4078,4079,4080,4081,4082,4083,4084,4085,4086,4087,4088,4089,4090,4091,4092,4093,4094,4095,4096,4097,4098,4099,4100,4101,4102,4103,4104,4105,4106,4107,4108,4109,4110,4111,4112,4113,4114,4115,4116,4117,4118,4119,4120,4121,4122,4123,4124,4125,4126,4127,4128,4129,4130,4131,4132,4133,4134,4135,4136,4137,4138,4139,4140,4141,4142,4143,4144,4145,4146,4147,4148,4149,4150,4151,4152,4153,4154,4155,4156,4157,4158,4159,4160,4161,4162,4163,4164,4165,4166,4167,4168,4169,4170,4171,4172,4173,4174,4175,4176,4177,4178,4179,4180,4181,4182,4183,4184,4185,4186,4187,4188,4189,4190,4191,4192,4193,4194,4195,4196,4197,4198,4199,4200,4201,4202,4203,4204,4205,4206,4207,4208,4209,4210,4211,4212,4213,4214,4215,4216,4217,4218,4219,4220,4221,4222,4223,4224,4225,4226,4227,4228,4229,4230,4231,4232,4233,4234,4235,4236,4237,4238,4239,4240,4241,4242,4243,4244,4245,4246,4247,4248,4249,4250,4251,4252,4253,4254,4255,4256,4257,4258,4259,4260,4261,4262,4263,4264,4265,4266,4267,4268,4269,4270,4271,4272,4273,4274,4275,4276,4277,4278,4279,4280,4281,4282,4283,4284,4285,4286,4287,4288,4289,4290,4291,4292,4293,4294,4295,4296,4297,4298,4299,4300,4301,4302,4303,4304,4305,4306,4307,4308,4309,4310,4311,4312,4313,4314,4315,4316,4317,4318,4319,4320,4321,4322,4323,4324,4325,4326,4327,4328,4329,4330,4331,4332,4333,4334,4335,4336,4337,4338,4339,4340,4341,4342,4343,4344,4345,4346,4347,4348,4349,4350,4351,4352,4353,4354,4355,4356,4357,4358,4359,4360,4361,4362,4363,4364,4365,4366,4367,4368,4369,4370,4371,4372,4373,4374,4375,4376,4377,4378,4379,4380,4381,4382,4383,4384,4385,4386,4387,4388,4389,4390,4391,4392,4393,4394,4395,4396,4397,4398,4399,4400,4401,4402,4403,4404,4405,4406,4407,4408,4409,4410,4411,4412,4413,4414,4415,4416,4417,4418,4419,4420,4421,4422,4423,4424,4425,4426,4427,4428,4429,4430,4431,4432,4433,4434,4435,4436,4437,4438,4439,4440,4441,4442,4443,4444,4445,4446,4447,4448,4449,4450,4451,4452,4453,4454,4455,4456,4457,4458,4459,4460,4461,4462,4463,4464,4465,4466,4467,4468,4469,4470,4471,4472,4473,4474,4475,4476,4477,4478,4479,4480,4481,4482,4483,4484,4485,4486,4487,4488,4489,4490,4491,4492,4493,4494,4495,4496,4497,4498,4499,4500,4501,4502,4503,4504,4505,4506,4507,4508,4509,4510,4511,4512,4513,4514,4515,4516,4517,4518,4519,4520,4521,4522,4523,4524,4525,4526,4527,4528,4529,4530,4531,4532,4533,4534,4535,4536,4537,4538,4539,4540,4541,4542,4543,4544,4545,4546,4547,4548,4549,4550,4551,4552,4553,4554,4555,4556,4557,4558,4559,4560,4561,4562,4563,4564,4565,4566,4567,4568,4569,4570,4571,4572,4573,4574,4575,4576,4577,4578,4579,4580,4581,4582,4583,4584,4585,4586,4587,4588,4589,4590,4591,4592,4593,4594,4595,4596,4597,4598,4599,4600,4601,4602,4603,4604,4605,4606,4607,4608,4609,4610,4611,4612,4613,4614,4615,4616,4617,4618,4619,4620,4621,4622,4623,4624,4625,4626,4627,4628,4629,4630,4631,4632,4633,4634,4635,4636,4637,4638,4639,4640,4641,4642,4643,4644,4645,4646,4647,4648,4649,4650,4651,4652,4653,4654,4655,4656,4657,4658,4659,4660,4661,4662,4663,4664,4665,4666,4667,4668,4669,4670,4671,4672,4673,4674,4675,4676,4677,4678,4679,4680,4681,4682,4683,4684,4685,4686,4687,4688,4689,4690,4691,4692,4693,4694,4695,4696,4697,4698,4699,4700,4701,4702,4703,4704,4705,4706,4707,4708,4709,4710,4711,4712,4713,4714,4715,4716,4717,4718,4719,4720,4721,4722,4723,4724,4725,4726,4727,4728,4729,4730,4731,4732,4733,4734,4735,4736,4737,4738,4739,4740,4741,4742,4743,4744,4745,4746,4747,4748,4749,4750,4751,4752,4753,4754,4755,4756,4757,4758,4759,4760,4761,4762,4763,4764,4765,4766,4767,4768,4769,4770,4771,4772,4773,4774,4775,4776,4777,4778,4779,4780,4781,4782,4783,4784,4785,4786,4787,4788,4789,4790,4791,4792,4793,4794,4795,4796,4797,4798,4799,4800,4801,4802,4803,4804,4805,4806,4807,4808,4809,4810,4811,4812,4813,4814,4815,4816,4817,4818,4819,4820,4821,4822,4823,4824,4825,4826,4827,4828,4829,4830,4831,4832,4833,4834,4835,4836,4837,4838,4839,4840,4841,4842,4843,4844,4845,4846,4847,4848,4849,4850,4851,4852,4853,4854,4855,4856,4857,4858,4859,4860,4861,4862,4863,4864,4865,4866,4867,4868,4869,4870,4871,4872,4873,4874,4875,4876,4877,4878,4879,4880,4881,4882,4883,4884,4885,4886,4887,4888,4889,4890,4891,4892,4893,4894,4895,4896,4897,4898,4899,4900,4901,4902,4903,4904,4905,4906,4907,4908,4909,4910,4911,4912,4913,4914,4915,4916,4917,4918,4919,4920,4921,4922,4923,4924,4925,4926,4927,4928,4929,4930,4931,4932,4933,4934,4935,4936,4937,4938,4939,4940,4941,4942,4943,4944,4945,4946,4947,4948,4949,4950,4951,4952,4953,4954,4955,4956,4957,4958,4959,4960,4961,4962,4963,4964,4965,4966,4967,4968,4969,4970,4971,4972,4973,4974,4975,4976,4977,4978,4979,4980,4981,4982,4983,4984,4985,4986,4987,4988,4989,4990,4991,4992,4993,4994,4995,4996,4997,4998,4999,5000,5001,5002,5003,5004,5005,5006,5007,5008,5009,5010,5011,5012,5013,5014,5015,5016,5017,5018,5019,5020,5021,5022,5023,5024,5025,5026,5027,5028,5029,5030,5031,5032,5033,5034,5035,5036,5037,5038,5039,5040,5041,5042,5043,5044,5045,5046,5047,5048,5049,5050,5051,5052,5053,5054,5055,5056,5057,5058,5059,5060,5061,5062,5063,5064,5065,5066,5067,5068,5069,5070,5071,5072,5073,5074,5075,5076,5077,5078,5079,5080,5081,5082,5083,5084,5085,5086,5087,5088,5089,5090,5091,5092,5093,5094,5095,5096,5097,5098,5099,5100,5101,5102,5103,5104,5105,5106,5107,5108,5109,5110,5111,5112,5113,5114,5115,5116,5117,5118,5119,5120,5121,5122,5123,5124,5125,5126,5127,5128,5129,5130,5131,5132,5133,5134,5135,5136,5137,5138,5139,5140,5141,5142,5143,5144,5145,5146,5147,5148,5149,5150,5151,5152,5153,5154,5155,5156,5157,5158,5159,5160,5161,5162,5163,5164,5165,5166,5167,5168,5169,5170,5171,5172,5173,5174,5175,5176,5177,5178,5179,5180,5181,5182,5183,5184,5185,5186,5187,5188,5189,5190,5191,5192,5193,5194,5195,5196,5197,5198,5199,5200,5201,5202,5203,5204,5205,5206,5207,5208,5209,5210,5211,5212,5213,5214,5215,5216,5217,5218,5219,5220,5221,5222,5223,5224,5225,5226,5227,5228,5229,5230,5231,5232,5233,5234,5235,5236,5237,5238,5239,5240,5241,5242,5243,5244,5245,5246,5247,5248,5249,5250,5251,5252,5253,5254,5255,5256,5257,5258,5259,5260,5261,5262,5263,5264,5265,5266,5267,5268,5269,5270,5271,5272,5273,5274,5275,5276,5277,5278,5279,5280,5281,5282,5283,5284,5285,5286,5287,5288,5289,5290,5291,5292,5293,5294,5295,5296,5297,5298,5299,5300,5301,5302,5303,5304,5305,5306,5307,5308,5309,5310,5311,5312,5313,5314,5315,5316,5317,5318,5319,5320,5321,5322,5323,5324,5325,5326,5327,5328,5329,5330,5331,5332,5333,5334,5335,5336,5337,5338,5339,5340,5341,5342,5343,5344,5345,5346,5347,5348,5349,5350,5351,5352,5353,5354,5355,5356,5357,5358,5359,5360,5361,5362,5363,5364,5365,5366,5367,5368,5369,5370,5371,5372,5373,5374,5375,5376,5377,5378,5379,5380,5381,5382,5383,5384,5385,5386,5387,5388,5389,5390,5391,5392,5393,5394,5395,5396,5397,5398,5399,5400,5401,5402,5403,5404,5405,5406,5407,5408,5409,5410,5411,5412,5413,5414,5415,5416,5417,5418,5419,5420,5421,5422,5423,5424,5425,5426,5427,5428,5429,5430,5431,5432,5433,5434,5435,5436,5437,5438,5439,5440,5441,5442,5443,5444,5445,5446,5447,5448,5449,5450,5451,5452,5453,5454,5455,5456,5457,5458,5459,5460,5461,5462,5463,5464,5465,5466,5467,5468,5469,5470,5471,5472,5473,5474,5475,5476,5477,5478,5479,5480,5481,5482,5483,5484,5485,5486,5487,5488,5489,5490,5491,5492,5493,5494,5495,5496,5497,5498,5499,5500,5501,5502,5503,5504,5505,5506,5507,5508,5509,5510,5511,5512,5513,5514,5515,5516,5517,5518,5519,5520,5521,5522,5523,5524,5525,5526,5527,5528,5529,5530,5531,5532,5533,5534,5535,5536,5537,5538,5539,5540,5541,5542,5543,5544,5545,5546,5547,5548,5549,5550,5551,5552,5553,5554,5555,5556,5557,5558,5559,5560,5561,5562,5563,5564,5565,5566,5567,5568,5569,5570,5571,5572,5573,5574,5575,5576,5577,5578,5579,5580,5581,5582,5583,5584,5585,5586,5587,5588,5589,5590,5591,5592,5593,5594,5595,5596,5597,5598,5599,5600,5601,5602,5603,5604,5605,5606,5607,5608,5609,5610,5611,5612,5613,5614,5615,5616,5617,5618,5619,5620,5621,5622,5623,5624,5625,5626,5627,5628,5629,5630,5631,5632,5633,5634,5635,5636,5637,5638,5639,5640,5641,5642,5643,5644,5645,5646,5647,5648,5649,5650,5651,5652,5653,5654,5655,5656,5657,5658,5659,5660,5661,5662,5663,5664,5665,5666,5667,5668,5669,5670,5671,5672,5673,5674,5675,5676,5677,5678,5679,5680,5681,5682,5683,5684,5685,5686,5687,5688,5689,5690,5691,5692,5693,5694,5695,5696,5697,5698,5699,5700,5701,5702,5703,5704,5705,5706,5707,5708,5709,5710,5711,5712,5713,5714,5715,5716,5717,5718,5719,5720,5721,5722,5723,5724,5725,5726,5727,5728,5729,5730,5731,5732,5733,5734,5735,5736,5737,5738,5739,5740,5741,5742,5743,5744,5745,5746,5747,5748,5749,5750,5751,5752,5753,5754,5755,5756,5757,5758,5759,5760,5761,5762,5763,5764,5765,5766,5767,5768,5769,5770,5771,5772,5773,5774,5775,5776,5777,5778,5779,5780,5781,5782,5783,5784,5785,5786,5787,5788,5789,5790,5791,5792,5793,5794,5795,5796,5797,5798,5799,5800,5801,5802,5803,5804,5805,5806,5807,5808,5809,5810,5811,5812,5813,5814,5815,5816,5817,5818,5819,5820,5821,5822,5823,5824,5825,5826,5827,5828,5829,5830,5831,5832,5833,5834,5835,5836,5837,5838,5839,5840,5841,5842,5843,5844,5845,5846,5847,5848,5849,5850,5851,5852,5853,5854,5855,5856,5857,5858,5859,5860,5861,5862,5863,5864,5865,5866,5867,5868,5869,5870,5871,5872,5873,5874,5875,5876,5877,5878,5879,5880,5881,5882,5883,5884,5885,5886,5887,5888,5889,5890,5891,5892,5893,5894,5895,5896,5897,5898,5899,5900,5901,5902,5903,5904,5905,5906,5907,5908,5909,5910,5911,5912,5913,5914,5915,5916,5917,5918,5919,5920,5921,5922,5923,5924,5925,5926,5927,5928,5929,5930,5931,5932,5933,5934,5935,5936,5937,5938,5939,5940,5941,5942,5943,5944,5945,5946,5947,5948,5949,5950,5951,5952,5953,5954,5955,5956,5957,5958,5959,5960,5961,5962,5963,5964,5965,5966,5967,5968,5969,5970,5971,5972,5973,5974,5975,5976,5977,5978,5979,5980,5981,5982,5983,5984,5985,5986,5987,5988,5989,5990,5991,5992,5993,5994,5995,5996,5997,5998,5999,6000,6001,6002,6003,6004,6005,6006,6007,6008,6009,6010,6011,6012,6013,6014,6015,6016,6017,6018,6019,6020,6021,6022,6023,6024,6025,6026,6027,6028,6029,6030,6031,6032,6033,6034,6035,6036,6037,6038,6039,6040,6041,6042,6043,6044,6045,6046,6047,6048,6049,6050,6051,6052,6053,6054,6055,6056,6057,6058,6059,6060,6061,6062,6063,6064,6065,6066,6067,6068,6069,6070,6071,6072,6073,6074,6075,6076,6077,6078,6079,6080,6081,6082,6083,6084,6085,6086,6087,6088,6089,6090,6091,6092,6093,6094,6095,6096,6097,6098,6099,6100,6101,6102,6103,6104,6105,6106,6107,6108,6109,6110,6111,6112,6113,6114,6115,6116,6117,6118,6119,6120,6121,6122,6123,6124,6125,6126,6127,6128,6129,6130,6131,6132,6133,6134,6135,6136,6137,6138,6139,6140,6141,6142,6143,6144,6145,6146,6147,6148,6149,6150,6151,6152,6153,6154,6155,6156,6157,6158,6159,6160,6161,6162,6163,6164,6165,6166,6167,6168,6169,6170,6171,6172,6173,6174,6175,6176,6177,6178,6179,6180,6181,6182,6183,6184,6185,6186,6187,6188,6189,6190,6191,6192,6193,6194,6195,6196,6197,6198,6199,6200,6201,6202,6203,6204,6205,6206,6207,6208,6209,6210,6211,6212,6213,6214,6215,6216,6217,6218,6219,6220,6221,6222,6223,6224,6225,6226,6227,6228,6229,6230,6231,6232,6233,6234,6235,6236,6237,6238,6239,6240,6241,6242,6243,6244,6245,6246,6247,6248,6249,6250,6251,6252,6253,6254,6255,6256,6257,6258,6259,6260,6261,6262,6263,6264,6265,6266,6267,6268,6269,6270,6271,6272,6273,6274,6275,6276,6277,6278,6279,6280,6281,6282,6283,6284,6285,6286,6287,6288,6289,6290,6291,6292,6293,6294,6295,6296,6297,6298,6299,6300,6301,6302,6303,6304,6305,6306,6307,6308,6309,6310,6311,6312,6313,6314,6315,6316,6317,6318,6319,6320,6321,6322,6323,6324,6325,6326,6327,6328,6329,6330,6331,6332,6333,6334,6335,6336,6337,6338,6339,6340,6341,6342,6343,6344,6345,6346,6347,6348,6349,6350,6351,6352,6353,6354,6355,6356,6357,6358,6359,6360,6361,6362,6363,6364,6365,6366,6367,6368,6369,6370,6371,6372,6373,6374,6375,6376,6377,6378,6379,6380,6381,6382,6383,6384,6385,6386,6387,6388,6389,6390,6391,6392,6393,6394,6395,6396,6397,6398,6399,6400,6401,6402,6403,6404,6405,6406,6407,6408,6409,6410,6411,6412,6413,6414,6415,6416,6417,6418,6419,6420,6421,6422,6423,6424,6425,6426,6427,6428,6429,6430,6431,6432,6433,6434,6435,6436,6437,6438,6439,6440,6441,6442,6443,6444,6445,6446,6447,6448,6449,6450,6451,6452,6453,6454,6455,6456,6457,6458,6459,6460,6461,6462,6463,6464,6465,6466,6467,6468,6469,6470,6471,6472,6473,6474,6475,6476,6477,6478,6479,6480,6481,6482,6483,6484,6485,6486,6487,6488,6489,6490,6491,6492,6493,6494,6495,6496,6497,6498,6499,6500,6501,6502,6503,6504,6505,6506,6507,6508,6509,6510,6511,6512,6513,6514,6515,6516,6517,6518,6519,6520,6521,6522,6523,6524,6525,6526,6527,6528,6529,6530,6531,6532,6533,6534,6535,6536,6537,6538,6539,6540,6541,6542,6543,6544,6545,6546,6547,6548,6549,6550,6551,6552,6553,6554,6555,6556,6557,6558,6559,6560,6561,6562,6563,6564,6565,6566,6567,6568,6569,6570,6571,6572,6573,6574,6575,6576,6577,6578,6579,6580,6581,6582,6583,6584,6585,6586,6587,6588,6589,6590,6591,6592,6593,6594,6595,6596,6597,6598,6599,6600,6601,6602,6603,6604,6605,6606,6607,6608,6609,6610,6611,6612,6613,6614,6615,6616,6617,6618,6619,6620,6621,6622,6623,6624,6625,6626,6627,6628,6629,6630,6631,6632,6633,6634,6635,6636,6637,6638,6639,6640,6641,6642,6643,6644,6645,6646,6647,6648,6649,6650,6651,6652,6653,6654,6655,6656,6657,6658,6659,6660,6661,6662,6663,6664,6665,6666,6667,6668,6669,6670,6671,6672,6673,6674,6675,6676,6677,6678,6679,6680,6681,6682,6683,6684,6685,6686,6687,6688,6689,6690,6691,6692,6693,6694,6695,6696,6697,6698,6699,6700,6701,6702,6703,6704,6705,6706,6707,6708,6709,6710,6711,6712,6713,6714,6715,6716,6717,6718,6719,6720,6721,6722,6723,6724,6725,6726,6727,6728,6729,6730,6731,6732,6733,6734,6735,6736,6737,6738,6739,6740,6741,6742,6743,6744,6745,6746,6747,6748,6749,6750,6751,6752,6753,6754,6755,6756,6757,6758,6759,6760,6761,6762,6763,6764,6765,6766,6767,6768,6769,6770,6771,6772,6773,6774,6775,6776,6777,6778,6779,6780,6781,6782,6783,6784,6785,6786,6787,6788,6789,6790,6791,6792,6793,6794,6795,6796,6797,6798,6799,6800,6801,6802,6803,6804,6805,6806,6807,6808,6809,6810,6811,6812,6813,6814,6815,6816,6817,6818,6819,6820,6821,6822,6823,6824,6825,6826,6827,6828,6829,6830,6831,6832,6833,6834,6835,6836,6837,6838,6839,6840,6841,6842,6843,6844,6845,6846,6847,6848,6849,6850,6851,6852,6853,6854,6855,6856,6857,6858,6859,6860,6861,6862,6863,6864,6865,6866,6867,6868,6869,6870,6871,6872,6873,6874,6875,6876,6877,6878,6879,6880,6881,6882,6883,6884,6885,6886,6887,6888,6889,6890,6891,6892,6893,6894,6895,6896,6897,6898,6899,6900,6901,6902,6903,6904,6905,6906,6907,6908,6909,6910,6911,6912,6913,6914,6915,6916,6917,6918,6919,6920,6921,6922,6923,6924,6925,6926,6927,6928,6929,6930,6931,6932,6933,6934,6935,6936,6937,6938,6939,6940,6941,6942,6943,6944,6945,6946,6947,6948,6949,6950,6951,6952,6953,6954,6955,6956,6957,6958,6959,6960,6961,6962,6963,6964,6965,6966,6967,6968,6969,6970,6971,6972,6973,6974,6975,6976,6977,6978,6979,6980,6981,6982,6983,6984,6985,6986,6987,6988,6989,6990,6991,6992,6993,6994,6995,6996,6997,6998,6999,7000,7001,7002,7003,7004,7005,7006,7007,7008,7009,7010,7011,7012,7013,7014,7015,7016,7017,7018,7019,7020,7021,7022,7023,7024,7025,7026,7027,7028,7029,7030,7031,7032,7033,7034,7035,7036,7037,7038,7039,7040,7041,7042,7043,7044,7045,7046,7047,7048,7049,7050,7051,7052,7053,7054,7055,7056,7057,7058,7059,7060,7061,7062,7063,7064,7065,7066,7067,7068,7069,7070,7071,7072,7073,7074,7075,7076,7077,7078,7079,7080,7081,7082,7083,7084,7085,7086,7087,7088,7089,7090,7091,7092,7093,7094,7095,7096,7097,7098,7099,7100,7101,7102,7103,7104,7105,7106,7107,7108,7109,7110,7111,7112,7113,7114,7115,7116,7117,7118,7119,7120,7121,7122,7123,7124,7125,7126,7127,7128,7129,7130,7131,7132,7133,7134,7135,7136,7137,7138,7139,7140,7141,7142,7143,7144,7145,7146,7147,7148,7149,7150,7151,7152,7153,7154,7155,7156,7157,7158,7159,7160,7161,7162,7163,7164,7165,7166,7167,7168,7169,7170,7171,7172,7173,7174,7175,7176,7177,7178,7179,7180,7181,7182,7183,7184,7185,7186,7187,7188,7189,7190,7191,7192,7193,7194,7195,7196,7197,7198,7199,7200,7201,7202,7203,7204,7205,7206,7207,7208,7209,7210,7211,7212,7213,7214,7215,7216,7217,7218,7219,7220,7221,7222,7223,7224,7225,7226,7227,7228,7229,7230,7231,7232,7233,7234,7235,7236,7237,7238,7239,7240,7241,7242,7243,7244,7245,7246,7247,7248,7249,7250,7251,7252,7253,7254,7255,7256,7257,7258,7259,7260,7261,7262,7263,7264,7265,7266,7267,7268,7269,7270,7271,7272,7273,7274,7275,7276,7277,7278,7279,7280,7281,7282,7283,7284,7285,7286,7287,7288,7289,7290,7291,7292,7293,7294,7295,7296,7297,7298,7299,7300,7301,7302,7303,7304,7305,7306,7307,7308,7309,7310,7311,7312,7313,7314,7315,7316,7317,7318,7319,7320,7321,7322,7323,7324,7325,7326,7327,7328,7329,7330,7331,7332,7333,7334,7335,7336,7337,7338,7339,7340,7341,7342,7343,7344,7345,7346,7347,7348,7349,7350,7351,7352,7353,7354,7355,7356,7357,7358,7359,7360,7361,7362,7363,7364,7365,7366,7367,7368,7369,7370,7371,7372,7373,7374,7375,7376,7377,7378,7379,7380,7381,7382,7383,7384,7385,7386,7387,7388,7389,7390,7391,7392,7393,7394,7395,7396,7397,7398,7399,7400,7401,7402,7403,7404,7405,7406,7407,7408,7409,7410,7411,7412,7413,7414,7415,7416,7417,7418,7419,7420,7421,7422,7423,7424,7425,7426,7427,7428,7429,7430,7431,7432,7433,7434,7435,7436,7437,7438,7439,7440,7441,7442,7443,7444,7445,7446,7447,7448,7449,7450,7451,7452,7453,7454,7455,7456,7457,7458,7459,7460,7461,7462,7463,7464,7465,7466,7467,7468,7469,7470,7471,7472,7473,7474,7475,7476,7477,7478,7479,7480,7481,7482,7483,7484,7485,7486,7487,7488,7489,7490,7491,7492,7493
0,-0.024821451481046076,0.0037371166909050905,-0.010624085202580019,0.006230233339414458,0.006409474138085177,0.0042034493505760315,-0.0038128905158659925,0.002191402356216973,0.0005629843570942088,0.00019059025179432815,0.005489081918786826,-0.004591831547249285,-0.0023886212315177464,-0.0026346243132669526,0.0029745210862575527,-0.0022331575606254718,-0.0029384182899537996,-0.0032819311830290703,0.008083885901830047,-0.004240892780379217,-0.003385686966306588,0.0011068742181524719,0.0091942523867772,-0.00875748522293024,0.0026605689273417553,0.004721971861156843,-0.0030286909792465867,0.007446544155718425,-0.006255711378315618,0.004113850803829013,0.0031301332462813987,-0.007347164751594257,0.004621327209543842,-0.001978286125962529,0.00020899902575003377,0.0022079832859239197,-0.0016946071477779228,-0.001422194604658588,7.185590080330324e-05,0.004768105813677694,-0.004571828186242604,0.007622795383355271,-0.008595816519018919,0.0031663258081037144,0.0020083475664719624,-0.0031268737002039613,-0.0025655372548662124,0.006329782051588612,0.00032933128443549386,-0.0004457206699732935,-0.004643609819014992,0.004637925690982378,0.0030307069247798328,-0.002176798124738975,9.67344356496276e-05,0.0010140165533580724,-0.002379121136075609,-0.004748326982811738,-0.0002538290732805959,0.008950303530661036,-0.004061364113406028,-0.002198533108691843,0.002065485315097609,-0.00020712866378822786,-0.000459369435308077,0.000447625629526591,-0.001527008427483178,-0.0003293250559403752,0.005295495270478981,-0.006888119912993093,0.004809993705366087,-0.0026431680351051427,0.00025543436895802567,0.0014600277922287254,-0.0015705888033398768,-0.0036390852439911105,0.0004843857470532856,0.0018318856079082774,-0.002059289543873518,0.0017033987867708018,-0.0015188479261919526,-0.002407305074282388,-0.004171795774795304,0.007295921005555663,-0.003128632844483597,-0.0038289680709094483,0.00517840552151091,-0.0019865041305889997,-0.001748868471779695,0.0023631667490923293,-0.0033774034633259832,0.0052676077212920145,-0.002971911137825463,0.00039487143034834684,0.004786976449805075,-0.0029879455047789917,0.0027692367341938307,-0.004860320515419256,0.005528142429648667,-0.0075696087546967316,0.004419319305824765,0.0027393021348229023,-0.004314757176419091,-0.003974937949698158,-0.0011471427460148758,0.0027431588228164373,0.0005851268050756611,-0.0010968037490824711,-0.003735084033790775,0.007068189376474842,0.003177904065257156,-0.005445961637129756,0.0006387644405686133,-0.0018951180011488077,0.0023808201165258286,-0.008724545488259449,0.012181047731919753,-0.0007180747249850075,-0.00267567169848958,0.002349144427360893,0.0019762791860123883,-0.005575015387603974,0.006517221877253907,0.004732710488847873,-0.003844344103596492,-0.005342963035273813,0.0052658130135952354,0.0005535348058124637,0.002306822352671773,0.00028973513232758195,0.001293493047093855,0.001657669179188525,-0.0017925397422422697,0.0015276705062220374,-0.00024061842058059515,-0.005575722741512675,0.00032076095660107885,0.001957609597610065,0.001522386827809024,0.0039012748421978906,-0.0029820227199163774,-0.002283461917821302,0.000573399220988226,-0.0022631523009773013,0.005043095795461452,-0.005015151207101827,0.0030224707799548912,0.0022073278312245486,-0.0024037387763774253,-0.003004298318378029,0.005017399175270819,-0.0013523453182673144,0.004132495511327845,-0.00387148243718893,0.004190976347527994,-0.006492027158689141,0.00015262874710459854,0.004592359689579609,-0.004953695132214824,7.761232172829345e-05,0.0006245937806117027,0.0034212539843547097,-0.003657286313339047,0.005742394648760359,-0.007122963894842546,-0.0003964588740332702,0.00617370998299183,-0.006057169428202825,0.0017372129467806182,0.0024044026744213607,0.003468823608719531,-0.0015254393264066948,-0.00241388461763917,0.0012224150787773333,-0.0014144051439020269,0.0004703901005227132,-0.0027443496956926785,-0.0020096200494086483,0.005209762035064003,-0.0011547154389224587,0.0031517897798148476,-0.0037318811308866395,0.0007893770009225759,0.004740482202412499,0.00036690700716220006,-0.00026717703251006897,-0.0019121377330013243,-0.0025197087741907027,0.007691209604380725,-0.00017853522667001645,-0.001957755480411315,0.002286286060953346,-0.002926077724081897,-0.0005034072851597702,-0.0021430382066255464,0.0055974947442144415,-0.0005985749592499953,-0.004478323007060656,0.0032459232786696784,0.0019116723572081946,-0.0006476382589633572,-0.0068322401484125495,0.008353523952765948,-0.007529895769996442,0.002731678982133086,0.005128072792497928,0.004835403453597353,0.0009935015392946228,-0.011053019972795952,0.004086713048882199,-0.004106549612764191,-0.0018991745213904649,0.009820874968563929,-0.0069507416798842,0.0043660121701704305,0.0001814055751343898,-0.0035954988232763936,0.0021072467293446894,0.0007638419844213682,-0.0025907048845230317,0.001987538456168014,0.0011699504490405527,-0.0036117924143342257,0.00045527244783888533,-0.005078176661949038,0.0001709450195445829,0.0013753173724905337,0.002743328180669007,-0.0036279106743059147,0.006943175247925063,-0.006937622758054937,0.002084824146174026,-0.0004952814924383716,-0.0002908304451967025,0.004046788140838458,-0.010385138597576385,0.002102869017108737,0.0034725119195585896,0.0022683066417337164,-0.002235831081440971,-0.0052360202280376114,0.009373311289312167,0.0018997004627719744,-0.0034099574727559446,-0.0038349257588462583,0.008245358603395226,0.0013832026753295733,0.001719758304466133,0.0016454036328682677,0.002415151522303823,-0.007003203388816603,0.004149663123367155,0.001918397580325155,-3.890331613708269e-06,0.00029931474368351257,0.0014236865904221285,-0.004771572292424737,0.007552233899631158,0.0014072330927757037,-0.005179134532941562,0.004172007579126588,-0.005318925798495062,-0.0018255438453437189,0.0006987830409186727,-0.0015920092707490188,-0.0002400840052360373,0.003101676749699159,-0.007242044656977471,0.006134421766016286,0.002732531780356095,-0.00475411871218407,0.005000835674627134,-0.0026480086436212213,-0.002762621746011713,-0.0009683572419010893,-0.0002487203904749782,0.006072571948490617,0.0009022306935158464,-0.007124429577192727,0.001919411668495157,0.0043829844848292795,-0.008475307068252806,0.0006357115159226786,-0.0018234893030767752,0.0025508050119364685,0.000378293086399136,0.0034524270408130197,-0.008636548245009496,0.001967131345257685,0.003509633332805259,-0.005697593952916313,0.009361344649107322,-0.004741499886351082,-0.0013748644045152095,0.0005224259938349048,-0.0015639509187452283,-0.0006486622053434371,0.0028992324576662632,0.0022584174804676197,-0.0021877129210411965,0.0021884060329936195,-0.004079495174999777,-0.002514667740535643,-0.003895244213139003,-0.006440375326102855,0.004242401328792282,-0.0019453965013013668,0.0016883913364665918,0.003764240458564908,-0.0017870178595462876,-0.0009074857662299616,0.005885293399307669,-0.00025786852358093985,-0.008899669445705598,0.0052629842116517925,0.0013276265262747284,-0.0016529660158926432,-0.0006376499489813737,0.0041622313230431085,-0.0013025798191127575,0.0013234261932586991,-0.006406373247384832,0.009174073175657809,-0.006176422182668586,-0.002966359368381135,0.0025602049047772275,-0.001227089714597361,0.0013014513269604033,-0.0014683960364012026,0.003187708101212568,-0.003071235889728707,-0.003270755261331269,0.008072170920653224,0.0018480006097455215,-0.005115123631410506,-0.0008177421297519296,0.0005044559592605625,-0.0023528231918109534,0.004572171638169868,-5.396542350440726e-05,-7.730802515649227e-05,0.0007434945230129614,0.0032487785451120366,-0.0059067529463355676,0.004171761044426908,-0.004217096215473126,0.00015569453845742346,0.006074897862179967,-0.0029636757651459794,-0.0018793615900531216,0.0010074618503860882,0.002015864741745585,0.003952062461881797,-0.0010887326867037393,-0.0021050772345272656,0.0024779262150454165,-0.000177559976374871,-0.0005412047175934694,0.0013312716246615557,0.0014071488723656478,-0.0023160146733678987,0.002302675098193901,-0.0015547944695247203,-0.001986573703362931,0.005280022953865701,-0.0026394630452425106,0.0014033254557748902,-0.004101013951699142,-0.0004949934634009813,-0.0013457124156724504,-0.00191018648877269,0.0021444698666962837,-0.004334232208106463,0.003976527005771372,-0.0013422988645547616,4.595494577608189e-06,-0.0036401097733536948,0.003396846141096298,0.007373783130953143,0.0025066096323880464,-0.005409473041292392,0.0028072292880712835,0.0010208568435894538,-0.0018196317580276746,-0.0011496862133497467,0.0034996762098456593,-0.007720151375633543,0.001120361013231077,0.001996187338714274,-0.0010474426476763578,0.0006419446326383524,0.002035705445203845,0.0006571698778248501,-0.002914228763935067,0.002989870454647871,8.137258011746827e-05,-0.006694895114946975,0.005440482685435119,-0.003941080706146965,0.005655176477494524,-0.003375726689736359,-0.001137280881305621,0.004216698432171408,0.003236051586120537,-0.004137000085899958,0.005694559659881305,-0.0037408509692631385,-0.000149637579444124,-0.002035920977403074,0.0008845400350067397,0.003358627546294492,-0.0014053199442495368,0.0012533503414041388,-0.004471572436219379,-0.0004941064363337231,0.0035367719820610603,0.001467738524748677,-0.005766083769403352,0.004909332465743651,-0.003270621171859847,0.004008962393977138,0.0024096264545086328,-0.0033088743099906025,-0.00024482256468514956,-0.0015817050799179734,0.004365419096210263,-0.0007554408153140455,0.005082061343738531,-0.002146965024819911,0.0025310284574729357,-0.0012257876790056704,-0.0022005545637935687,-0.0002538747722787014,-0.0009824186328487138,-0.000480450026494972,-0.0032274849751099816,0.002471373146988611,0.007217381677511095,-0.002203684878696886,3.1704171340378314e-05,-0.007309274217448247,0.003765307884634565,-0.0013876920040594633,-0.004708016597097569,0.005124253576040862,0.0032398889417503823,-0.004939074258399792,0.0013477039153324622,-0.005094340915794693,0.0031585374363579176,-0.0006686651496652067,-0.00033990956271063314,0.0016760046452260274,-0.0018396093473493091,0.002670853140943512,-0.004514249794491313,0.0024612640364041257,0.007882932919863951,-0.004809451169190528,0.0024316256736015905,-0.0030629096979740388,-0.004691942843565556,0.006377779372593888,-0.004156239608830715,0.000399580926714187,-0.0027932811607879033,0.0027238709898826765,0.006468298471694654,-0.003672372610267988,0.000476393579192608,-0.0025463784465737218,0.00022525373244499487,0.0007393423032960766,0.0008383053862158027,-0.003458195209259712,-9.654708836062356e-05,3.5421508159364236e-05,-0.006686610215877914,0.00207268219051711,-0.0019447944008644752,0.006418049435724619,-0.0020713734741059633,-0.004100396958014318,-0.003401980594195164,0.0024547158725949096,-0.0015598010372380885,0.0018843982278711282,-0.0013482023445011656,-0.0006013172573518411,0.0030255886202754574,7.662617657652512e-05,0.007703040396651147,-0.008929922554534843,0.004280334617973616,-0.0051975383123363415,0.0026451592376916188,-0.0023775536307955045,0.00023316437123340036,-0.00216558301546256,0.0023084369224377803,0.0014419475779575885,-0.0021432485386157774,-0.001141102470967095,-0.005128847360620312,0.0022520235887157347,0.0076444411941853085,-0.003451773970030046,-0.005787633298224313,-0.0001648337117005544,0.01366000705948699,-0.003732886740955453,-0.0032669442903174866,-0.002869301331637355,-0.0032441351954058586,0.008614274458909275,-0.0016648388012723203,-0.0003126006007819965,0.004312407448264425,-0.007558166444199917,-0.00402742000028424,0.010100021556463057,-0.002107071571058777,-0.001612604652290927,-0.0024741437351504135,0.00617457971306138,-0.0037650870650207313,-0.0007526349602604194,-0.0039013186705452022,0.00475192174927688,-0.006017210518837848,0.0020540800438202528,0.004975501610030899,-0.002418227025140657,-0.0012020452734826824,0.006472209183886844,-0.0036831370073872843,-0.001117336713813963,0.001209581870752019,-0.0036165669283946956,0.006979259330995416,0.0005158245135083156,-0.005120760614598537,0.004593037696079845,0.00028520652053443227,-0.002540290133523963,0.0006977691896371536,0.0037123454081481,-0.007113979535836184,0.0030284985563595497,-0.0019421002037783156,0.008401684638345492,-0.0024543909024836814,-0.004825595999784016,0.0027044272287229925,-0.004006315401077118,0.004626253737165345,-0.004347402564057321,0.003486020988644472,-0.0021027529322907614,0.008575508799701273,-0.0004008407313232406,-0.005087696828565527,-0.0010138862310857797,0.006157701991005727,-0.006574020689292987,0.0029093097953035167,0.00089104981144836,-0.00513623749919926,0.0022109401177234735,-0.0023035858738787375,-0.00022193185566318625,-0.0030839569335541846,0.0020608620988826747,0.0011726224695515202,0.005831318868351501,-0.005576086756711396,0.002420132956247453,-0.0023347955176309075,0.0021553801420060377,0.0034487001492534254,-0.003493195487686144,-0.0006654987811525584,0.004349140423315173,0.00031776083952042783,-0.0017482511054524098,0.0009937037399218086,-0.004142268427461765,0.005656934477235312,-0.0026965478752732823,0.003600275681031753,-0.000566698074179041,0.0027504855513983423,-0.0022431871036685037,-0.005986191152210344,0.0068545100976007325,0.0028873853665548894,1.5048144523594e-05,-0.011531064049405017,0.005154895117717742,0.0006427572103518184,0.000609027239335065,-0.002948459988087001,0.010121539428761315,-0.006581036116864337,0.00445012813706651,-0.0016100190056618413,0.0006346308967620051,0.005406767812786588,-0.001483211253059996,-0.00021331061023792175,-0.0014804972450785934,-0.004569279852838628,0.004113426323278034,0.0011981903188553733,0.007570127406861848,-0.006406723888110377,0.0023199721399745593,-0.0013959527418335848,0.0004960331326300079,0.0040084055565840415,-0.0033304353792200435,-0.0005701338864785645,0.0003334931584786972,0.001653154507521059,-0.0013083376372135577,0.00014115968628244935,-0.0001389565902230098,0.004434479852617599,-0.004841732033443802,-0.0030146453854218297,0.0047184466141910264,-0.001233472077557556,-0.0013820431921405057,-0.0006879341123941016,-0.003464962621402138,-0.0007362109368061165,-0.0009819733736299533,0.002772352181850885,0.0037363716487831045,-0.00377991511356407,-0.0005882768785306978,-0.0011229552672310326,0.004481840287812453,0.0025554443779016206,-0.005807197792529253,0.002635861115683958,-0.0035704819969384167,0.002909937475245108,0.0015902949852707998,0.001613283630228084,-0.004525082736404239,0.002943978151405261,-0.0026990214314259243,0.0037019688112685163,0.001035936570206613,-0.003558864194843188,0.0032157200916927454,-0.005011682715229714,0.001154923507129785,0.0030110870660446164,0.0005525178906719752,-7.5060140173083e-05,0.0017991820647130846,0.00022551347318772446,-5.232557345722616e-05,-0.0003292261206916977,-0.0015268513079080646,0.0025243025822813047,-0.006555927014099563,0.0032350833309243722,0.0058820450962896575,-0.006133953806503278,0.00032973244026683016,0.002400307427461035,0.0025323032016303635,-3.946666484872921e-05,-0.003459267591529303,0.00019869387881021606,0.0024272901880024933,-0.004164447943556591,-0.00022849794552573673,0.004295557127819325,0.0003093648639832845,-0.005614521330877356,0.005371430775577565,-0.00301750086871352,-0.0018002215613332987,0.004208545026294815,-0.0002009082242834622,0.0010771583194466475,0.0017448071427220463,-0.0011441350546813375,-0.007360440781993708,0.0028374851875745282,-0.005349572430646784,0.003582898463214063,0.0028616674116055257,0.0004963985913744865,-0.004838431025462201,-0.001677277853619416,0.0012788825979702222,0.0008340810362305171,0.0024897455550620985,-0.004194827341404307,0.007400856120468885,-0.0031556451499653872,-0.004296557035461218,-0.00023435061419211555,0.005756019386634657,0.0011802909371155684,-0.00395175369144162,-0.0017726970626622677,7.032384181509681e-05,0.0023444807031871204,-0.0002693460763066945,0.006415416160577895,-0.007513820530122073,0.0006660492939971524,0.0011824323426903379,-0.002352582795888886,0.005037921905173434,-0.0011099754379560566,-0.0043404465445563145,-0.0005892182639314142,0.003845426381174669,-0.004738165164912445,0.006395150592328138,-0.0001701419267203774,-0.007407831785933151,0.0010577365463518614,0.0013493985094937297,-0.0037890319153824196,0.007062676293996255,-0.005149034867046344,0.003138790094260821,-0.0016579980654935337,-0.003049635134298399,0.00034929841377498644,-0.005147380846839658,-0.0037821289755523018,0.005040634091185155,-0.0025483011017663464,0.0036911870859056128,0.002333585301426005,-0.0017193042566481997,-0.0003055123608797098,-0.00013854572234316375,0.001795856526901962,-0.0048050887807630635,0.00046765280831171074,0.0058437739989358525,0.0028193434983518812,-0.004392089435132408,-0.007864638731486316,0.005246991818036883,-0.0023936502192574436,0.0018249661939546173,0.0007245354960306305,-0.0014139973101021206,4.063557291007908e-06,0.0029241302543000247,0.00350394944669535,-0.003523833807508624,1.6293374182571526e-05,-0.0004986436787368938,-0.0025715760719215576,0.0015011629305263536,0.0030365228301366632,-0.0033579864141350594,-8.908876977616037e-05,0.0030881485725025785,0.001411139619463155,-0.005181574343760159,0.0007371263438038347,0.002750147633889929,0.0023288472414606997,-0.001236409490635783,-0.0020908578496436213,0.007625817557631285,-0.01164590454175891,0.005877466697572593,-0.0018450228796381316,-0.001759719762226739,0.0009803102446424101,-0.0008872827332487675,-0.0017731657908972712,-0.0014990478310626166,-0.003224013020263628,-0.004677624745451903,0.006532788555856845,0.002643477601516251,3.4435580917839546e-05,-0.0059620769285375404,0.004786591519438577,-0.003470309910482502,0.0031117438716070024,0.003579261595293295,-0.004851651008180445,-0.0026387810302571446,-0.0029201342589480544,0.011002881100383288,-0.0074328669713629725,0.0027936037400051144,0.0006675863766533971,-0.0014347275691221966,-0.004874522831120079,0.007518368801451678,-0.0020583265760450086,0.0021783847852579444,0.0006716366323799967,-0.0016043675969545635,-0.001786650255946609,0.001650846746947865,-0.0035429008819919065,0.005773029691574811,-0.00752607740411761,0.0007983028841858714,0.0025331272044524723,-5.0057560732817904e-05,-0.0008555049581745217,-0.002956570130408934,0.0003635797324792911,-3.6880121215566894e-05,-0.0016315885714431625,0.0017164780712134375,-0.0004067109761710888,-0.002768883691711465,-0.007129770314528116,3.017812866852841e-06,0.003555992969057642,-0.00447892909903568,0.0006537122721227595,0.002086512402430679,-0.0034576453623729507,-0.0021536179858784336,0.0027200483053761246,-0.003821805893233161,0.004624890294269756,0.0009290359036821095,-0.006659587637327322,-0.003605472523738798,0.003993688666274764,0.0017538613501019323,-0.007714383920526532,0.0025711197569470347,-0.0019316980598716655,0.0020340025731446754,0.0038650090589975915,-0.006004429048305905,0.0015410874901837152,0.0043895516610465354,-0.004433707972909356,0.0017564593426545516,-0.002847767961236592,-0.0036355295718717272,0.0010662356989570426,0.0043942539834413595,-0.0009815508690332868,-0.0025054274002510373,0.0001372294863155243,-0.0005029073933435946,0.0022966361216039343,0.0001079153153566301,-0.0023284430788083027,-0.003927970955795263,0.0007160621294311027,0.002805213712760788,-0.0025038919229272514,0.003868530225324373,-0.00578054759825811,0.0031188016650731867,-0.004690160545195466,0.00441629557834684,-0.003714988257040353,-0.005096432748080031,0.007403815715243238,-0.0055722735981474526,0.0017938549305282978,-0.003245913995510494,0.005490339636474213,-0.0022124628905605755,0.008094435579072924,-0.0006905861763400628,0.003179851234540595,-0.004376829845789829,-0.0012989466056162725,-0.005554180536765293,-0.0008903460234227983,0.004968641370956761,-0.008469126841408332,0.00209627973592235,0.002561028602265494,-0.0050589887950934906,0.0046602640196779874,-0.003510654085671412,0.00015577018099213185,-0.005468244774835507,-6.41382338121866e-05,0.006011667637819672,0.0010498926164882673,-0.0003815495089416393,0.0019293936169252365,0.0014491639882048607,0.0019139135072330454,-0.003672524092134878,0.0051550963406207595,3.801375581662922e-05,0.0037725888588802203,-0.006053248082086457,0.0025065769636779876,0.005749518074591078,-0.0029780480088648404,-0.004432351192688043,0.003974938890986917,0.0006960790446926982,-0.00992950387163245,0.0012711248394590951,0.00362274521030464,-0.004390264122686232,-0.0009383972898857434,0.003226412552950553,-0.00013449594363052088,-0.006408614780054531,-0.0022945813470099745,0.006526708632507242,-0.002273628653930113,0.0015644917948987164,-0.0002320944554761993,0.0018952075611087275,-0.0009305480620264359,-0.004359846182843572,0.0005232631027515364,0.005735838745478183,-0.003831771618315763,6.72572598732931e-05,-0.002078380729426697,0.004591268250436374,-0.00018348011181462245,0.0018802188613295768,-0.00420066928662326,0.0037361504891397306,-0.003664102499859752,0.00036475375408568696,0.000920712404746269,-0.004713115554486334,-0.0038007158954141036,0.005879455838031138,-0.0005732721526030603,-0.0031849812981320073,0.001900182593375385,-0.004255096883510836,0.002673075417274458,0.0032331943993093226,0.001333648462373615,-0.0018712572286974578,0.002360836172571405,-0.006156428843600387,-0.002993450233531704,0.0038642305544099235,-0.004077193995654876,-0.005012700122967386,0.0020669246798116843,0.00212792981125159,0.0013172111393311883,-0.0023742404028593385,0.002387738368231686,-0.002841165484257529,-6.526987787776769e-05,-0.00024351468278222135,-0.0011636486007003065,0.0018166140254609398,0.0027744327501237186,0.0002658369890792201,0.004395396539145923,-0.00684752158821849,0.006956058507226439,0.004042874746448554,-0.006246300302776476,0.0009559316843932997,0.0007459167611290827,0.0034077979546205586,-0.0035341880401397775,-0.0002913686961908506,0.0003607311833464881,-0.0021155017963429153,0.0011857766846484776,0.0069834351597455845,-0.009432537068456252,0.0015354387688718098,0.006405608673128038,-0.006589883538054145,-0.0026132959605738915,0.0032036987910981415,0.0029813630407955925,-0.0055411156823292704,-0.0007916003755823188,-0.0033995212057802665,0.004681102375565619,0.003227458377161296,-0.006682422255167695,0.0002103201205460804,-0.0006068612816282114,0.0024864790074580144,-0.004631610050574313,0.002873868700927702,0.002725017896807914,-0.0010722078842454591,-0.0021299573421497795,0.0017951917463335848,0.0006162186806366346,0.0013017424637633802,4.874776996782876e-06,-0.003044930440348731,0.002236250658002086,-0.0016319425543571955,0.0042917544975482865,0.003964054589889361,-0.003941189143574649,-0.0017962969435731896,0.0049500941282327625,0.0021457875103476323,-0.0014402129608902022,-0.004050200912404716,0.005450427478115071,-0.003769496408098937,0.0029212119536638687,-0.0004225901058311721,-0.003326948683277362,0.0003956148549311951,-0.0006306887057056196,0.001854863981016806,-0.0012884049724882394,5.2926575595220156e-05,-0.0052899494050652925,0.0024273633669663016,-0.001681979204724465,0.002342586270922488,-0.003637192080565326,0.008417222626844382,0.00021326195321867477,-0.007727119480786504,0.0066898993310027625,-0.004542308095258893,-0.0006610671142591764,-0.0025562087495223,0.001483531226675126,-0.0038836796666421886,0.005013298999639482,0.0009024552834132576,-0.006921088321894604,-0.0025874644915692556,0.009168241661462599,-0.0032218376982771414,-0.0025535222573164536,-0.0026102507176942787,0.004262602916759136,-0.0065886965414573865,0.0012526584234667099,0.006494983451539768,0.0004902912361286773,-0.0008519124670890721,-0.007081752035896487,-0.001347149276050817,0.0041942757565840046,0.0023603299095892177,0.0018687783899280505,-0.0013592496077339767,0.003466463393474315,-0.005465049853566304,0.0002698168212176255,0.0006909857444721726,-0.0006986648750401095,-0.004229427823713864,0.00510775077021897,-0.001755091704021216,-0.0005789872203729862,-0.001787281743903838,0.001982178361458155,0.0056591594273968475,-0.003913053162979417,-0.0002937915582345143,-0.00030231538082223496,0.006736516973947122,-0.004960882484362109,-0.00022168319193307973,0.0003812848799909656,0.006355575112893307,-0.004211917156265071,-0.0001275920703992253,0.0014593522735923505,0.0009481233937305517,-0.0015876677963869322,0.0015614605225277118,-0.00253970653036219,0.0034046282132732942,-0.004194627116877513,0.0042533721825446895,-0.0017663422982221206,-0.005595119119738883,0.00091719118105868,0.00244283895978805,0.0037738321941109703,-0.0019178981192594674,0.002724273022887401,-0.003790541847750264,0.000785697586077736,-0.0027155121123552555,0.0006867309324335991,-0.0018267228803465943,-0.0035731303040660665,0.005675065704389113,-0.005053562138803988,0.004528017806914909,-0.005281478534156576,0.002392807273533494,-0.0011986120823608793,0.004610736002070358,-0.007245894272004336,0.0027415523365727722,0.003078412553294169,-0.006981126186209856,-0.0020736936853286113,0.003114545370528947,0.0029186591269298972,-0.00679265092154867,0.0014760010270279918,0.004509875386365644,-0.005763383768382843,0.003083038899922547,0.0031669684554699006,-0.001794562019600005,0.0018019902821062874,-0.0010239666190000978,-0.003304233839395755,0.00347857587733074,0.0017428962587566351,-0.003641564996267586,0.0008098908180431072,0.0009004200859710793,-0.0020939256270513366,0.002051872497635287,0.0013253125300793994,-0.002654241350974916,0.007860774004719762,-0.0014068240082259257,0.002108475990983235,-0.0028699255116475786,-0.0038321961927734356,0.004056909011471213,-0.0010617388892632442,-0.004195752079328528,-0.0014136521210192249,0.004982314686831581,-0.002923952784469619,0.0027943372818414287,-0.00024513059344499587,0.0014777599236944468,0.002721856984899236,-0.0024248771039128507,0.004583594699566778,-0.0015531836880031686,-0.0015395907872271797,0.003575238150380922,-0.001634374967758112,-0.00017355153023267087,-0.0028723450964784425,-0.0035992157721309254,0.0004478238491140451,0.000500792838675303,0.006977162547035976,-0.0016621244530770785,-0.003749649353532504,0.002680760488752916,0.0017824921646412588,-0.002169066835268155,0.0024920039149514874,0.0017244309415267705,-0.006053663771483284,0.007302270280303911,0.00044266740380928554,-0.004335156915903055,0.0018900428930703492,-0.004239436566574746,0.0003551395042514825,0.006834893410953136,-0.001452106465585063,-0.0023815893455548815,0.004909729705845707,0.0008859818253767293,-0.01106843516213607,0.0115894450608777,-0.00592065827683754,-0.0025297882353100655,0.0019032741742892301,0.0010574613014470398,-0.004289615712409938,0.0017679488306711038,0.004103065391776403,-0.004790700619213781,-0.0035219988280001187,0.0034163626375414246,-0.00534234559849782,-0.00014685131462735236,0.00018125552052877377,0.00025870218473619317,-0.006872278504449946,0.006921988337781643,-0.0009885357606813686,-0.0028112377915511955,-0.004212212925068106,-0.0003766010024854258,0.0037447355289193553,-0.004151558132519562,0.004092371341282274,0.0012854886674264826,-0.0029598615287244725,-0.002933599375362099,0.011802985768917123,-0.009013213871735952,0.0012642884841224044,-0.002769411017223206,0.002294062788585827,-0.0012959694002313454,-0.001080055993857849,0.005200718022107094,-0.00614845951001659,0.006471302721005423,-0.006492470609554949,0.001191634333389356,-0.008634173054346085,0.0033649541351326597,-0.002690636302894941,0.0037879046627131412,-0.0019300370866310772,-0.0060953345196515804,0.0047319413945100955,0.0012177154853827204,-0.0021074018126924147,-0.0025911446605455146,-0.0029214843655990842,-0.002163733862190844,0.007328595172783265,-0.007714560088752376,-0.005421346100854757,0.00449490253300847,0.003485388173053851,-0.005425946792904701,-0.003130157242330735,0.004013863646500809,-0.0008188902731819409,0.004516549058476019,-0.0014084559172718924,0.002775748637287275,0.0005758147651812336,-0.0018750798889410494,-0.0014707672458803534,0.0054953592651754745,-0.0034204687690524505,-0.00549265101880808,0.008844645222408716,-0.004666441184067715,-0.0010056225402595659,0.0025119208648194434,-0.005744341821008811,-0.0017983793772217893,0.002595644951553459,-0.0007734070646626427,0.0017958747680988335,-0.0008597022832769687,0.0005406260978703767,-0.0005226958802144652,-0.002159469554085387,-0.0009711498264853004,0.0005958558348865281,-0.0006156124732192309,-0.002210101427792351,-0.002882858418958941,0.0014530138996433734,0.00282888730521326,0.001008872238267865,-0.0027742765934070258,-0.005047521498064278,0.008870454623468327,0.0010908550444602536,0.0023371796167544648,0.0003635304781104446,-0.0008698144791737296,-0.004393825054949349,0.002327197686356834,0.0026377903919639206,-0.005498383453711466,0.0051739068772222955,-0.001243254571100569,-0.0024238393036461743,-0.0007488673221119596,-0.0022676695405314117,0.00039272533591496145,0.0003663195948389238,-0.0017491536942106972,-0.001844780572473911,0.00872787718757114,-0.003513010500811702,0.0020455100229207473,-0.0013895129703633004,-0.00036535936195120924,-0.002391517037164332,0.0025680146684931722,-0.004417921760637989,0.0004237551984723572,0.002029316910247414,-0.004619873139019663,0.002595133850430145,0.003627354137330262,-0.004531575181493212,0.003016246696514642,0.0001491713007162538,0.003539753377952353,-0.0037929683805137506,-0.0007735669565037542,0.0055891523807014435,-0.0035324588085305798,-0.0005727378829266803,0.007134401134624915,-0.0036222094971549356,0.00099457764469051,-0.008115600486527085,0.008117223312741806,-0.0024133290535584486,-0.0012059069323649594,-0.002261289660741554,0.004657687174405782,-0.007376902776921022,0.0014942641833809223,0.000896605731629459,-0.0009368956499887278,0.0002885206990605881,-0.0006106147689571091,0.00038893672683092367,-0.0038933152577251768,0.005812719615619546,-0.0020489276512086134,0.0006200921577720381,0.0016042391497850695,-0.004118519578283623,0.0022859684845418617,0.0015393999578456686,-0.0010421773170055913,0.00400340179954379,0.0013783221056293238,-0.0023906289058417663,-0.005651365111907104,0.010988584212376726,-0.002661401373765699,-0.005010948508963208,0.0026702118720825156,0.0025725827676633772,-0.0010377275846460453,-0.001723929312836829,0.002292679355896963,0.0027746927701045553,-0.00037705418168645753,-0.0010759310804814618,-0.0014137802509523235,0.003000941082689318,-0.006798262622345099,0.004556912929837376,-0.0007441301800997715,-0.0067141379382609214,0.00576218386401771,0.006234538825738348,-0.004067935734232245,0.005636684059319488,-0.000750737243044728,-0.001808387482976312,-0.0028234644196709485,0.0002509207645822012,0.010527742864407665,-0.004519309123001058,-0.006485850990208255,0.0019293272459780964,0.00818029644312162,-0.007162190123869758,-0.0016723095010092992,-0.0018592886735382098,-0.004572445206678771,0.0019739526808150347,0.002974721803262972,-0.0011093485460257186,0.0005549640110256964,-0.0013322133775080741,-0.0022674030442695393,0.005434970963824607,0.0012856289200563651,-0.0005942551154634912,0.0013034419799201641,-0.004268063834155888,-0.0010525248488105065,0.0006158904279101176,0.004609189946072592,-0.007248635095118798,0.0022756911865342106,-0.0005323584964186958,-0.002895585116203723,0.0015385638420937291,0.000130354271943377,-0.005130650942403237,-0.004660663643814286,0.0036276783068731524,-0.005473763436422461,0.0025814230682576645,-0.005621580805510903,0.004932327416070003,-0.0019330333390862608,0.0013736076141531012,0.004390739961939847,0.0005079455313721489,-0.00777610160662042,0.0058347566921987245,0.003883031688044625,-0.006009331225272616,0.0035557078317419973,0.002042158259960306,-0.0021832533308912814,-0.0038209279355746963,0.0009755552749130653,-0.0006619106538070954,0.0012872587908549355,0.0007668904012956884,-0.002254339426924854,0.0038885108385252613,-0.006883039674310554,0.01471438862365635,-0.0023865375901126126,-0.010753201927875378,0.004106824903455915,-0.0015570901839799451,0.0060959375165884466,-8.98308786227417e-06,-0.009787013266673342,0.011432988335170147,-0.007514726814930572,0.009375844816637386,-0.0036395608081324082,0.005792458443217732,-0.00532343991201521,0.003331690262380714,-0.002782820534821542,0.001644215276813005,0.0004467603961532373,-0.0015947696559979758,0.0011738503378896916,-0.001208298822325245,0.003765321355111484,-0.007029690842127876,0.003868675326428759,-0.0041963647149391645,0.0006053520514796559,-0.004760065028466593,0.009527455553076367,-0.005086341878382524,0.0016994018776531102,0.0023018924856809254,-0.006035385363137568,0.010498281099502293,-0.007010173046917123,0.004988602589526889,-0.0038887902859741784,0.0006083212499903272,-0.000527486337744674,0.004434256842720661,-0.00836994416857813,0.004436985841800476,0.003848888482022286,-0.0023634022298018157,0.0014335937232426614,0.005203601990721765,-0.0030813122625449473,-0.0011152626150654759,0.0004830500054977229,0.000876750539968667,0.0017293983420333867,-1.0224943527195121e-05,-0.0012040228502368318,-0.0058805040501223975,0.006137756322423751,-0.0032823524894283695,-0.004414874264318767,0.0063139626864888165,-0.009012243497547996,0.008321788466349156,-0.0018015625569383956,0.0008261628487134558,0.0008050580784895906,-0.004375601344843284,0.001624237320187328,0.0011327325058279403,0.0015766114305684714,0.001206342535992613,-0.0038703282469522175,0.0014434148303898483,0.0017088917750691895,0.0009553899938108311,0.001426048705211867,-0.0031320508347242064,-0.004439104813073875,0.00528532464278701,-0.0010801649781740938,0.0006917979649779641,-0.002284082257802908,-0.003023943393619695,0.006853016950788409,-0.006152711206324732,-0.000340754400312852,0.0006535599955303648,-0.005925633474788452,-0.004320711965273433,0.005353847230627715,-0.003456830690118225,0.0038861986129071924,0.005513688549701305,-0.004075715566658229,0.003680021943718902,0.0014648231002035133,-0.003585784264992981,0.0069380136746055796,-0.00037998974266008887,0.0017803154934839397,0.005313245367665276,-0.006240640154967657,-0.0026787442374400896,0.004251129229509093,-0.004873923373052832,0.009541349052415035,-0.004466980342374119,0.00041218502304700416,-0.005712161350827233,0.007075988288747034,-0.007721296272964188,0.005599160079602605,-0.0011440759700885007,0.003453480839164413,-0.003397865114352607,-0.0027512794378798163,0.0065501826143608,-0.00527638724548405,0.0027410474743284324,0.001636153423626184,-0.006719082894570474,0.003007641040503983,0.0005541766182193671,0.003418257270017774,-0.007686735706023108,0.007022431271768616,-0.003132742472229404,0.0037322188831199403,-0.0036474471536357255,0.004763894472995436,-0.003201863655620355,0.006065690280416163,-0.006158729656319702,0.0005367509003113893,-0.003417356004679869,-0.0014662708006795957,0.002019339984286949,0.0023567020888655187,0.0006989936888384843,-0.008480351247536946,-0.00340925057659059,0.0040888540302415335,0.0005685210542826223,-0.0043380217727046234,0.008823771178444646,-0.006461727235070805,-0.0024406325018124994,0.0004121092074935793,0.00041130942383856397,-0.0027370879286062843,0.004067530935620782,0.0013000460144456938,-0.0035809790196767643,-0.0016696058000259958,0.004297922309270546,-0.004295620739963792,0.0019881498257802253,-0.007674695357183681,0.006337228354748996,-0.000893041576445498,0.005313106697679657,-0.0023713764130003966,-0.000449314518926519,0.0011927697181748791,-0.0004214703252780177,0.0015213217734419294,-0.0003449074907534354,-0.006418661828783473,0.001341372806895731,0.0029437247873801376,8.512226957530524e-05,0.002319091036129625,0.0020914005944318893,-0.0021682368729421045,0.003492925688986841,-0.0011571551969910155,-0.0002291940239606298,0.001442880422749701,-7.175133227114647e-05,-0.0012422142757683222,-0.0018309135630102938,-0.00017728272963336898,0.0028491702067971482,-0.006694402431014297,-0.0031677702415103598,0.0045645858782092435,0.0031695446846434824,0.0022865835541882027,-0.0017713209931791462,-0.0009311306429938901,0.0012747439324040915,0.0012108618270459742,-0.0024450798154838417,0.0017900466388937458,-0.005428421935933331,0.005328378021380207,0.0012686476038101682,0.0006379509396385434,-0.004217596241837691,-0.002290490676328045,-0.0019248080808545454,0.004734700033123989,0.0005505250801520018,-0.0034189652831080612,0.0009557954461683477,-0.0020317039990138948,0.0013595509865973062,-0.0015970309274470679,0.006469784135155753,-0.005903450651724439,-0.0014326624613693617,0.008040310892083827,-0.005285557422677806,0.003969559102698894,0.0043825834365405535,-0.0014109104268584312,-0.004974020932308682,-0.0013319656328373605,0.0024137444114703368,0.0025713885799838287,-0.004138063694707755,0.002031715166085113,0.0027895340309093374,-0.0032365893789419987,-0.0007891496362657269,-0.0017335769098653848,0.0016999355022424933,-5.378529168763094e-05,-0.0005427329814284986,-0.00030841845532417027,0.0036712007294870956,0.00021791938704722195,-0.004824297928730217,-0.007934785867253727,0.00230457748951719,0.004160802977487205,0.0008005896871762463,-0.004956610096991951,0.00369039273532282,0.0007703402102085369,-0.002840544840971135,-0.0055782252231058845,0.004139025693519909,-0.003545120222362367,0.00816323235380726,-0.003814001033119878,0.0029187344434298745,-0.0018962298310203213,-0.0041853024064997905,0.006671895594277658,-0.005427327790278527,0.0002569172719509116,-0.0030767885638469895,-0.0012836298684678331,0.007744693492868381,-0.0045626693456102575,-0.003797802016579529,-0.004188387899016253,0.0033848004481466876,0.0015398763118660709,0.005640672492768836,-0.006697205954595041,-0.006540289703928174,0.003741176157864079,-0.002729255380177225,0.0022747197604775877,-0.003299049593835354,-0.0009272976383501122,0.004329739727537862,-0.006999393563175015,0.004163142281968703,0.0008060964244847607,0.0002005909428401563,0.0060884677072407176,-0.008375518552207122,-0.001153452478169342,0.004483749066701315,-0.006862880670398558,0.00022943561078788056,0.0035948856910735026,-0.002598264559272737,-0.0024288835148471065,0.00487416771554028,0.0013991735173652887,-0.00740032326413004,0.0032411573966283037,-0.003940584181038797,-0.004357262316770364,0.002411157697863256,0.002715695857721346,-0.004329887131831785,0.0011791279930729163,0.0005659132723226445,0.0009107242920186157,0.004469577200705425,-0.002231554078954545,-0.0031224354399245406,0.004983965452153509,-0.0025862122767725975,-4.78557587920872e-05,0.00038155691899012745,-0.0022053256335093172,0.0018715029504001275,0.00103782117201641,-0.0031763711354981204,0.004624489894485227,-0.004461704772186381,0.002869306445570684,-0.0021336600936523466,-0.0005131956293912802,0.0013571941497755513,-0.0026854416396537052,-0.002679232259172749,0.0031647896572901957,0.002461420801965004,-0.0012631203121553376,-0.002925260847927315,0.0017910443342704374,0.0017873181125722282,-0.004368518207476289,0.0011425300897716212,-0.0009571261927164729,0.0023995903896829513,0.0011337700030838512,-0.0009630431806452268,0.004356121353886001,0.00274753919656045,0.0031955164058822517,-0.006183509339722346,0.002360500161698911,0.0021599473764941433,0.004939329000249994,-0.003451910113188823,-0.00011418723561880218,0.0005792327842666937,0.0011048250528092897,-0.0011203803676163666,0.0032240155528966484,-0.0054778887808339324,0.0013212764660601706,0.0031271361754199624,-0.0019055577191193734,-6.279635095273531e-05,0.0032100541938532685,-0.0035531883541571494,0.0033304481231000264,-0.002770323261003994,-0.00025390171971810164,0.005330087142529171,-0.005239061677758221,-0.0015062836708935362,0.003650105611356522,0.0015585220032643757,-0.005300509028875173,0.0037454542348098916,0.0041934621685249494,-0.0065624284278386225,0.0005975919190217847,0.0011089485354612008,-0.0019880534467559994,0.0023910550287672815,0.004198633397987796,-0.004727126178485324,0.002854077189919695,-0.0004380089939317324,-0.0006700768397318041,-0.000741661456099679,0.0009570467305498279,0.006841475629464757,-0.0032379444109031353,-0.006138571511791455,-0.000774604293450406,0.006816806303873351,-0.004582590418636195,0.00277092063187717,0.004336363870580396,-0.004387193004517582,-0.00018705355880834426,-0.0018609152129005688,0.004953987446202178,-0.006403221446690723,0.008972989998342189,-0.0018752191480446128,-0.0007294796869723543,-0.002464757900568975,0.007677973320834045,-0.0014010642222957947,-0.0014142570800681881,0.00466010099379368,-0.006694565292492838,0.0006177339228872676,0.00198709311379843,-0.002016472451770362,-0.0023214087001087475,-0.0005589195954994731,0.002612389770912476,0.0016289096018378122,-0.0007653632123402665,-0.002357218930406574,0.0024513005870460645,-0.0011992734679042696,-0.0031620166615824257,0.00751262980597321,0.004423491472334466,-0.010733252843330094,0.008255308030391798,-5.346940438565276e-05,-0.0019564919998328913,0.007512145268233398,-0.0026565668054288004,-0.00271302717767799,0.005824335817214659,-0.0026829633586014402,-0.00312126717862721,0.0008923596349506755,3.951366474768025e-05,0.0017819002649603584,-0.0029777477777548082,-0.0025878370804542517,0.0065805897903809555,-0.0053926543784504,-0.0003160041694136733,-0.0021935316342612194,0.0021991484404826826,0.0019269672098139645,-0.0021000088166460737,0.004054386631247021,-0.0024854299631301415,-0.0008492121685412299,0.0012761601313791427,-0.0006506919159106529,0.0054779490188975564,-0.003986368122346607,-0.005991269539674301,0.008977472620546137,-0.0011287820937284673,-0.002337812610945943,0.004542030807298329,-0.004464778496566743,-0.0024022907761548974,0.001362177971062366,0.011131534781804559,-0.0066995771259956835,-0.005223971930301625,0.0034515009893186445,-0.006003590260527062,0.007639912372333448,-0.0049487303925757845,0.0052506638693103356,-0.004143901816189917,-0.003118838256043915,4.6613386425895415e-05,-0.003691914642632763,0.001152834572404101,-0.00027170199285473626,0.0007920678209268127,6.39925906855939e-05,0.00047656258571125183,-0.0012708579361530013,0.0018548452749043531,0.001596209112784278,-0.002531724188298499,-4.014355230031956e-05,-0.0019938419952867043,0.0030369475550003984,-0.005036153907317912,-0.0062019791514308165,9.606627838398909e-05,0.004052552614702287,-0.0002703957325459449,-0.0008017491439420457,-0.005516892239584058,-0.0026764399157844787,0.0035063765725277295,-0.001630943102971172,0.0004600382557768584,0.0009298790608419999,-0.0017829624771964192,0.0016863884438828968,0.006429524213391682,-0.0008007508686069572,-0.006949874044584549,-0.0009527400102266903,0.01119310238233537,-0.005527428670404991,-6.887162637078767e-05,-0.00012250669562658274,0.005102486697917272,0.00033363433538590316,-0.005171116226580076,0.0015632868380728727,-0.0016946392042337867,-0.0013517482815498128,-0.001689534529328486,5.207595641440913e-05,0.0004299974950023122,-0.0023689792081534396,0.002456881997912539,0.005781565351779106,0.0002697756174588283,-0.0020201583560138527,0.00044624119467311243,-0.0015711542507313928,-0.002246928353485432,0.0012879218480473318,-0.0014379834304757066,-0.002928227457974741,0.0008860638982155774,0.0036237574773972684,0.001832916990548442,0.00020604910919617866,-0.0030375435651131787,0.0034333610935947684,-0.0015614753590815983,-0.006126611086165225,0.00046176922064436297,0.0012909729212977283,-0.0001508337951121662,0.0012671858911525574,0.0010263987438657528,-0.0031215349565502848,0.0036470416359533162,-0.0060632474615617245,0.004013048315249099,-0.0015566010585162126,0.005422522235531246,-0.0038013003262220733,0.0013820133980545705,0.00212235209767942,-0.0025156498732077544,-8.212651464188959e-05,0.0006210059649969577,0.003372655003133419,-0.003935576868771391,-0.0009147541369354221,4.7872097675115275e-05,0.0008913857297678413,-0.0015846328052031733,0.0013065306596681682,-0.006670674313262701,0.006679862758530417,-0.002992205547929315,-0.00016638011932370312,0.0017700800558564556,0.0004959961213513536,-0.0033763669606793685,-0.003794035837994939,0.000977738516485349,0.004891989740998208,0.00013417934865317459,0.002268939104648069,-0.004780614640022541,0.004400732317126209,0.0003152623142232734,0.0003067834493616331,-0.0031745892340535077,0.0017574391649790072,0.001230757041532676,0.0008966460213438891,-0.0014326842660280208,0.005425137815563142,-0.0031148937097095738,-0.0031779226330737446,0.00309436212596955,0.0008101857530277298,-0.0015004274261076012,-0.0052307807247868624,0.0016586562189542737,-0.0015606330302801123,-0.0003030021779789792,0.0023231820751454003,0.004108649764718405,-0.006597424306605429,-0.0027282413715290776,0.003860141468158487,-0.0008988861387384619,0.0014466367683446263,-0.001224007068986145,-0.0004603672521795356,-0.002109450763051847,-0.0007156044654693994,-0.0022149809011695774,-0.001404060277637594,0.005030972470692513,-0.0052309285451609564,0.0031441128009851004,0.0021218831451747053,-0.005300471560293524,0.00325205449061575,-0.004906673130827674,0.0033896382944368876,-0.0005940706530269881,-0.006096996248481915,0.00010866245924215881,0.0013310306210364456,-0.003394406983405482,0.0038950426776311374,0.0004311270839307563,-0.0005059690221263516,0.0008939765430970112,0.006335910844919728,-0.007939381529622124,0.0008391838601981157,-0.004011812902539439,0.002310677002903789,0.00207754689230225,7.692268953685466e-05,-0.002725987593308221,0.001335064091919298,0.0036293372657954133,-0.0016956630626050267,-0.0017716772770383388,0.0020987131039461953,0.0021498081974266983,0.003983809311049621,-0.004674284622295171,-0.0004680694637454796,0.0015963254020863215,0.00015614511628058762,-0.0003248539775113034,-0.0008801466773647977,-0.0018816041319449767,-0.0021825159536159374,0.006290513308289058,-0.00170090229109582,-0.0021595911311591853,0.002817301382812922,0.0018583330229024664,-0.0032591158115854585,0.0039251205202788025,-0.0017590249167698483,0.0007106003679133869,0.004458320978065616,-0.004270324717455808,-0.002084872593907067,0.0014465982726000375,-0.0035006946682767494,0.0008909112439355044,-0.00028667979608245015,0.004888835733732749,-0.0031545031531940294,0.0009622682077331726,0.0055890916483679436,-0.0008183304646476042,-0.00384798339338523,-0.0013036894569064669,0.001076372047139273,0.0012202214800656195,-0.003269112166317514,-0.0007356533698269537,0.002077052525359627,-0.002523861696793181,-0.0014417833656933847,0.0011964661805380363,0.0005336650953797992,0.0007510519504088251,0.004162319087171354,-0.003135821860586773,-0.0034607637343789834,0.003104557335843942,-0.0012758477450465744,-0.0007002121439846402,0.0005739463818475053,-0.0017734199129472085,-0.0006679603096422796,-0.004334806949328602,0.004913795633008466,-0.002407851697200874,0.0004571303576768208,0.00048799489138590926,0.005825210585963452,-0.004621836326669121,0.00395206363561405,0.001002487000344289,0.0026828003401149826,-0.0019581671768086214,0.0002890795987404363,-0.0011348374268590282,0.004549609482506092,0.0019500698169363099,-0.004749808378677995,-0.00019928151893314355,8.575899022224485e-05,0.00042695441506862894,-0.00014952145943104226,0.0014531244071207634,-0.004014603627329142,0.0008739201946859966,0.0012594865245290298,-0.001788547802230152,0.0052728395774801415,-0.0026962924384312764,-0.002829832770641691,0.0037088688063255824,-0.0038812456319008903,-0.004019588084976935,0.0026728558482209046,0.004025510925409979,0.002231489390819402,-0.007073796445752964,0.007932590711552575,-0.004510883673170224,0.0010519387125493415,-0.0024775863098815375,0.0027664793538079136,-0.0003717273458289469,-0.0061563847248344615,0.004229170710451023,-0.00021749903809310973,-0.0027163654695481136,0.00266047550565939,0.0014117869484315069,-0.002942409365009595,0.001280015892002767,-0.003863361804517145,-0.0046222871299593845,0.009186860139103232,-0.007251747152701913,0.000927535698206135,-0.0010601207359561427,0.002935524460884103,-0.0033365932019151397,-0.0016941593179373266,0.003958970590151562,-0.005571274960452567,0.0020350580360413203,0.0038348868750779598,-0.005106682709845294,0.0018336278880977791,-0.0011616544011823922,0.0015921481478435484,0.011179850684039278,-0.006217130199828748,-0.002416047500970006,0.0018794910548173454,-0.0015178001211393888,-0.0014405262747391526,0.0037312540085410483,0.004650290316377987,-0.002724146830713225,-0.0011223786719521387,0.0033777801401987623,-0.00035672569914591495,-0.002109791335698954,-0.004628624281881743,0.005183266260946098,-0.001223280946491736,-0.002133194144146803,0.00040462462178852325,0.0023520663705822466,-0.004512504223704267,0.0005380464656863494,0.0014221395180033963,-0.0032338719926635496,0.003453054323812047,0.0006200528576482397,-0.0006836513126803933,-0.001278864474874656,0.00018243413446144885,0.0036153891651156183,-0.0029953263572981537,-0.0025930351672099994,0.002571602163659445,-1.7194579280227358e-05,-0.005352270896064382,0.0037080160100204877,-0.001803527214066486,0.001475014486133835,-0.0008587556679396671,0.0058365767801865755,-0.006416692901479764,0.0008176216522811656,0.004698114364010773,-0.0019851560211104763,0.00030492138923997574,0.00025382343212314946,-0.0009667077636494966,5.574183978717166e-05,0.0037472443239532833,-0.0016369871221476723,-0.003257844410947022,0.0004699441593485365,0.0031473440760694926,-0.001765776819577739,0.0020942311790468748,0.002381543534277431,-0.0004050755416577359,-0.005445620912872457,0.004986264591272012,-0.002674586765609904,0.0031201102798131724,0.00014402873726100356,0.00026325102302874714,-0.002466825035904281,0.0004197784442198309,-0.0038324400800781883,-0.0010290547750841344,0.0003156766567507006,2.776536627934388e-05,0.00037590850604674443,-0.000716496659752723,0.006529035796648998,-0.0027128288603072825,0.005116726769614388,-0.010603525591864742,0.00489641509734224,0.0012830991559548617,0.0012898785785848378,-0.0022693477328284617,-0.004413157783936995,0.004247305896570233,-0.000556162424487281,-0.00448297572204822,0.003132132411029752,-0.0005249136640519961,-0.005641558231187177,0.001753133836356717,-0.003405196718163915,0.0022128171492517505,0.004609815043597068,-0.0033352906750634013,0.0027536507732506895,-0.00031324224757327507,-0.0015103491559459996,0.0012663080147296806,0.003696578867159662,-0.0020064634111036745,0.0012968354583612388,0.0013594146573974169,-0.004218001953025319,-0.0001420555857364599,0.003525683028272872,-0.004454890591309071,1.3686987485201223e-05,0.00184595664492402,-0.00246870599226097,0.0019771073904361596,-0.002121807979925644,0.000369332138321499,0.0065541030738713695,-0.0036403330059946383,0.002746739121935302,0.0008470649214409226,0.0015022309036534654,0.0012904167070594802,-0.0002600472253166198,-0.0035377933494537524,0.003253144283251001,0.007901276166384228,-0.006903789364672909,-0.0035725977434568888,-0.0003267848470646148,0.007841615448293805,0.0027022732869277453,-0.005303966665633029,0.0009109703998373811,-0.0033858090964663957,0.00045426333770958176,0.0020136718221095275,0.002332350314806048,-0.004284294881314165,5.901889590622163e-05,0.004555807212635891,-0.0035598917771595836,-0.006443123906872977,0.003454125726077683,-0.003176616793668431,0.007807120292305405,-0.00542253420123191,0.003497433478481482,-0.0024850883352159924,0.0042127836151198425,-0.005570934480956486,-0.0010750480759407239,0.007991916043129715,-0.0030111077121645876,0.0021684138802706555,0.0009885273946651995,-0.006160243468960205,0.0029576873926896174,0.002219954892564256,-0.009448740781063844,0.0041046096883512505,-0.006291049493117397,0.004336645390296168,0.002650165657825267,-0.001907996900703684,-0.0010233216603692246,0.00669197370937296,-0.0011350379869813807,-0.0034749588055661513,0.0034633391245185684,0.0006305187200551933,-0.004153885160875051,0.006796192014832513,-0.0013172200264257264,0.0011105223826152083,9.156083660939077e-05,-0.002744600762848809,-0.0011832196267398285,-0.0007286797649069007,0.002607247960429753,-0.0011456263627675448,-0.008291486721252754,0.008646750165522812,-0.0026212396074445266,-0.005610433984185686,0.005499167422239393,0.003391294693838882,-0.005434347542468694,-0.00360546430395889,0.0042092384030697275,-4.995837444234447e-05,-0.001638586258081614,-0.0007967344663093101,-0.002751753980695859,-0.002851923328869367,0.007621745515087632,-0.007042814326010911,0.004374753534963617,-0.0009908510283486724,-0.006884887144701031,0.0029477754356223578,-0.0002922720973580514,-0.003325182278705789,-0.00022435707381382008,0.006142156393975817,-0.008649346938723854,-0.000263218846645694,0.0058536621930091294,-0.0024077857564800275,-0.007252160307187687,0.0079365954034595,-0.00227923694969066,0.00958943209058465,-0.0072700832656358684,0.0022509515759488743,0.0007390057894006912,-0.0019537185400858555,0.007939262721298414,-0.009400102663143658,-0.0002508615906492262,0.0031228967223026127,-0.004914019979516578,0.010577670345144142,-0.007175335387232813,0.003680378383587059,0.0010481631677552174,-0.004089253454219238,0.0007447215982785533,-0.00047570176839844706,-0.003410197840259586,0.010126104538660127,-0.010319247020694169,0.0027445412227201545,0.0016572078033428486,0.003134404717980317,-0.002119395207184932,-0.006491498398387684,0.0051910350837258866,0.0007965597260077006,-0.0010392563865130983,0.0036887178406576223,-0.002187890341266464,-0.0007574023293203375,-0.001345287763410759,0.0005591436726701446,0.00302443081887746,0.0025611765728436233,-0.0037080419087098288,0.002209354247532672,0.005851531823638873,-0.0014143496244088977,0.004101674576910631,-0.0041414619806185325,0.0014673310092178627,-0.0028172148862163743,0.00118814823057555,0.002749445321247722,-0.0015426248471396506,-0.0005839182796743527,-0.0031570442849082007,0.0020556323853368817,0.0011330968230877007,0.00014561204767957553,-0.008536436952116413,0.006756021542483437,0.002001614848827578,-0.006698878324330777,0.004585016778628137,-0.002782918300823573,0.002893203636403241,-0.004135005785763084,0.003546485704203079,-0.0016648590382361429,0.0005988386569832021,-0.0013308969932161892,-0.0026853084679346454,0.0014421681725304003,-0.00010080250389879548,0.001581909859970726,-0.001199716759638457,-0.000995469792959127,0.0002703725364228679,0.0010569551701107357,-0.0050673483785822196,0.0003518316749687118,-0.0003169655916370577,0.004446440110208958,-0.0019093268153701371,3.590851531476563e-06,-0.004439726532837201,0.0027393515837295045,0.005801824285590367,-0.004931869946011632,-0.0002480941644821189,-0.0014821194806629535,0.005933830261454226,-0.006685038628311286,-0.0003956941732068486,0.000654061421533114,0.000126379333777644,0.0005461154891516566,0.002316116239007471,-0.003013900350885092,0.001316095855678994,0.0009412932853164512,-0.004547019076253648,-0.0029319452852460746,0.00766788719321272,-0.005012431237757171,-0.0003587976510729089,-0.0013036462199443502,0.0049749036321016455,0.00014266610616776775,-0.0036972133240140946,-0.0005419071229275894,0.004808600249117529,-0.0019105339757807896,-0.0007774216715194708,0.0005174448981378472,0.0021285770906059715,-0.0015663505814617373,-0.0028087782371675396,0.0129307064795559,-0.00035956483565293394,-0.0018553102108397018,-0.0011982312274983974,0.0020226819092172364,-0.008668160117645296,0.002688574618590564,0.0044599067902445465,-0.0021259185999376747,-0.003325999053688113,-0.0006059228785961812,-0.0019056369721995882,0.007897685501102989,-0.0060484902054725054,-0.004505947118476078,0.007401860059358402,-0.002238343524500131,-0.0036083253809615985,0.0007176798857910564,-0.00031135372289815345,0.0010046259365733108,-0.005493330660304801,0.0008661075441035889,0.0024136403932901247,0.0030842130311214667,-0.00974726262173134,0.001511146273691405,0.004971446260774939,0.0017237940478544616,-0.004492984249918916,0.004814153936918707,-2.4790833638487947e-05,-0.005548029789674061,0.006072462854057149,-0.005062250892946641,0.002893884628077204,0.0010313087033375031,-0.004938070535490204,0.0010588023909125315,-0.0006139924135978034,-0.0016211752043453593,0.0055905336750145815,-0.0005460731306069367,0.0028800269345589493,-0.003551261264357799,-0.004896076575680816,-0.00048595621907580573,-0.004439595738531092,0.006508977038662302,0.0012352796499955918,-2.5703062005139888e-05,-0.003063047645302794,-0.0046164940279679635,0.005041310851517652,-0.0014568297340578308,0.0029266673921432597,-0.0016419644667450691,0.0033303306572005087,0.0003916101869034974,-0.0005080922360550933,0.002227965017699989,-0.004205699571490129,0.0012275234491897396,0.004762895478089581,-0.006672848177259085,-0.0020285232775544815,0.005501450701474524,0.0018029743622156016,0.0019038803595352067,-0.0011208447994140404,-0.00011365268543196776,-0.004645611363559066,0.003922227547910506,-0.0016921618338015957,0.00924415665020174,-0.008424132419388634,0.0025770075594917057,-0.005323959948907247,0.0048404167962805035,0.00026253284518138603,0.00395045881028945,-0.0051432765479193275,0.0020784448851396543,0.0033744208094665146,-0.004239156255158734,0.004785828499023073,-0.0063414559493429655,0.013355406136287344,-0.004715027563005877,-0.006927830119977781,0.005188812565216943,-0.0026978609937558145,0.003000395384483218,0.005032576267178251,-0.0030133921613348124,0.0013348143602084747,-0.0031445406970779842,0.0005861699445770461,-0.0032364570748516456,0.00937584862138853,0.0010547250232169653,-0.008199001133924702,0.0050614596782465595,0.0014768936339613775,-0.0008746061616485882,0.0013282430457800044,-0.0039551355774180555,-0.0003628043011571716,-0.0015666756807820926,0.005024557802713417,-0.0054971580105708595,0.0020195375980681463,-0.0023950141981574353,-0.0010238926432822783,0.0038311914204508207,0.0004947310419938601,0.005178579352807976,-0.005824108910882268,0.008585713157038936,6.86304853967795e-05,-0.0009800848934681913,-0.0033206021375980464,-0.00048541621066886876,-0.003178743673275338,0.0022817746947164886,-0.002566459408933365,0.0022043735823713507,0.0034179943584993033,-0.0025048036509437697,-0.009954221256398206,0.00991381041676878,0.003743176175203688,-0.0054878574674492656,0.0016399127064415792,0.0009447345592659275,-0.001753616631730142,-0.0069818026601257644,0.0036487244326093306,0.004421830433475362,-0.00640602574768949,0.002060081031654785,-0.0003202413605152464,0.0026549384159924904,-0.003776574832022069,0.007251842325480381,-0.005347430078884035,0.0013301297587420507,-0.003473723174283806,0.0026433872036632005,-0.0006746130849296745,-0.005460831970627062,0.0013946634002910984,0.006697117868617672,-0.005438459645354509,-0.001632377764319023,0.0005608467152496821,-0.0035949630824422102,0.003691999719830236,-0.00011775854609208866,-0.005560086188533851,0.0012137988431636854,-0.0008007524883703192,0.004564729907877364,-0.0025168542595698086,-0.0003805391319122457,0.001521180893394625,-0.003102511740281444,-0.007446323395132308,0.006981039840946006,-0.003774537452128825,0.002154129331169933,0.0005276927669795009,-0.00017754533399569464,0.0009125271857831251,-0.001109774446463828,0.002068749558973981,0.0009657479727289371,-0.0038620525907216642,-0.0007764089116313868,-0.0017996818127809795,0.0019810368790069044,-0.0025190636012024687,0.01205421980826106,-0.010650698905558385,0.00421795282768052,-0.00021950110112934192,-0.0015751076415071897,-0.0008181975357127205,0.003801151935339993,-0.0014587809758374744,-0.0009930330729128974,0.0014312173211303563,0.003121687426169362,-0.0023586197808315064,0.0032311828935537596,-0.0038861447576650516,-0.00017763753669114155,-0.003112695001005734,0.004008589191878582,0.0008311761874914425,0.0017352125887241407,-0.006137174340802617,0.00934338643057435,-0.0065330677203854085,0.002690023675658666,-0.0017769714953126952,-0.0021279263346097093,0.003929102355784055,-0.0021828985497928622,-0.00040477281767409853,0.0018352457581926923,0.0025303890440998827,-0.0029450749460320537,-0.0032606698300144286,0.003622888941775604,0.001391709086833804,-0.005425582261175018,0.00036415229916811326,0.002637638527026318,-0.002201565316642569,-0.0022468512386220663,0.0033472737772606274,-0.0020474454154770978,0.0023188023445519547,-0.00485680189594514,0.00597898403617383,-0.006915882667213769,-0.0005991927010472943,0.0014259375730086691,0.001410978053408056,-0.001501467908210464,-0.004723531095869792,-0.0010017448590547704,0.007613455441091305,-0.00563693192400823,0.004819039136853138,-0.0010207002098746093,-0.003189614913121108,0.005633918021968698,0.0017243520947476537,0.0012570091209083284,0.003905087464249114,-0.0057885175715397495,0.0004793224004562657,-0.001710077137036206,0.0002007173208534034,0.005072622283400514,0.0017091409607617113,-0.006324622993899561,-0.0027980671607440956,0.004913815241430461,-0.005313368120167817,0.005126847841135838,0.0020905122418200515,-0.003142941877394989,-0.003159439333111332,-0.0021652498177482608,0.0006690047224428929,0.002996167295811933,-0.0021379435026675072,0.003779051328052365,0.00043136832300998866,0.0015047934772388508,-0.0004940859499577804,0.00034117189304389163,-0.0016514526199806667,-0.004864587852857479,0.003591566671950126,0.0024396614194537804,-0.0031813474075963366,0.004111651063010447,-0.0014854868312577391,0.006585695936088383,-0.003683948825791553,0.0002013703722024561,-0.0015441494214043518,0.003665547704299105,0.0010085014547951518,-3.7215306835059675e-05,0.0035828008784437753,-0.008351051639658541,-0.0017961957840080729,0.0032875850897998633,-0.0006250854150686016,6.47583585556686e-05,0.0013428549960492883,0.004855383758168339,-0.006299450285227869,-0.004855681013612093,0.0033487690698470523,0.0005185767060531416,0.0005139896919768779,0.002903437931102145,0.0026576985601544966,-0.0063177891711322254,0.001345856399192048,-0.0001599193098497848,0.004044888693866198,-0.002464100035149418,-0.0017347361300821776,0.002031144863131823,-0.00242200336474529,-0.0021210903317022732,0.0030653809088647187,-0.005304892021077698,0.004069837061327373,0.0017808858858920677,0.00171181529751196,0.00328484167890681,-0.0033108630789785713,-0.004818566111962173,0.0046980784326441875,-0.001108198910287534,0.00013346305429264002,0.008671502516324649,-0.0027515779597079705,0.0035850577242456582,0.0007475910700653199,0.0019812092024126347,0.002272839827340756,-0.003711589203051874,0.0016844450024828294,0.0014339188315724135,-0.0020822408185471276,-0.002185216835275019,0.00039916318935273907,-0.003128209486018403,0.0028800939101078843,-0.0016339953973066356,-0.0029177033291061627,0.00320830709117004,0.002029955279154102,-0.00360655700938782,0.005624639623839158,0.001980683891027549,-0.0014804950921156173,-0.009804072175097774,0.011742440353251426,-0.0005270275328540597,-0.004376369399407648,0.007688745810833961,-0.0015059809034128333,-0.007736453028665738,0.006241677896246035,0.0023337263747810113,-0.0008136305012000024,-0.0016497764864157277,-0.002641136223512568,-0.005624685426706866,0.008973015127712956,-0.0006912192290210226,-0.004444952106273053,0.002088604648524199,0.0025472747302013937,-0.007824517180381295,0.004673068798785213,-0.005550711571238609,0.007135352662537109,-0.0017662442334913722,-0.000181253629423114,-0.006296238638615361,0.003900383372778862,-0.0016158276735577987,0.0020085721779818295,-0.0015744265356919522,0.002145640442977082,0.0013265035028979788,-0.00402645341698232,-0.001870504703011086,0.007765571652352557,0.0020532908196691665,-0.00548707128782186,-0.0032731483310480362,0.0031365307991397385,0.001499316833127613,-0.007919934841600876,0.001244266382031963,0.003715441970170796,-0.004887245978312609,-0.002442424029120946,-0.0024482935318476517,-0.00035725228200100156,-0.002188064651431968,0.002249834079295818,0.0014447942506338387,0.0004430997042176764,-0.0012989053220245081,0.0010892664596319859,9.450092311721204e-05,-0.0031314202905830474,0.003844246872394151,-0.002705436919519485,0.002086678669948502,-0.003916882768310766,-0.004294234157655584,0.003774228055346786,-0.0031626443729062424,0.0019438028833384368,-0.0005709256393126826,0.007294476566868058,0.0010962957923695788,-0.006589205812550815,0.009171908868117598,-0.0003335192971751391,-0.0067154210963404955,0.003231757208123946,0.0031178451909572723,-0.0035677720087392735,-0.00018363820529752995,0.0002795985825835266,0.006635111241276039,-0.0012296048124492932,-0.0018804623903305282,-0.0014421594175988955,-0.0024948361465682925,0.00457689358693521,0.0039422230984144805,-0.00325602674269235,0.009957950760670124,0.00034262812485124245,-0.0037615808252706353,0.0006942686461411074,0.001296104391725329,1.028864686878725e-05,0.0014913011309836055,-0.006540270516655392,0.006040106051689194,0.0006203953883629692,-0.004342865571772523,0.002176832474179346,-0.0028357746612323355,0.0023581035481059186,-0.0030120730473190043,0.004785943082629738,-0.0024753498744152567,-0.0011986740548046823,6.292434705668232e-06,-0.0038190469538733713,0.003412114682949076,-0.006293735789069779,0.005396039990775767,-0.00490382434082908,0.0006873562743746206,0.0045724929565229494,-0.0018861428641916472,0.0001463372257273085,-0.0012640820355808789,-0.002035848130853387,0.002500453088293808,-0.004423462141520763,0.003046750738286221,0.0007572770343159055,0.0013394741819655897,-0.003000938433746676,0.0013114388638544234,0.008926640126839079,-0.008870741328228196,0.005912274343518501,0.0017527087777071423,0.0008823368673973184,-0.0005345789676937703,0.0026600293941702723,-0.0007307974590869688,-0.005155644298601411,0.003301883883634749,-0.0006529349895122777,-0.0012585972230646659,-0.0054024433149245325,0.0016271466245393045,0.002386495162896348,-0.0071544733192493905,0.002344779477792652,0.0007543936024471373,0.0028709916671352297,0.0032454678729071616,0.0006171761994900511,-0.0032534447647472324,-0.0030579655396556302,0.005095461082220279,-0.0021249724873532395,0.0013682251804002239,-0.004956955451047023,0.005473240279241632,0.001139715024868,-0.0027703823110331255,-0.0016788219504216433,-0.005180048894604997,0.008241429776402916,-0.002237515882024856,-0.0033693165274389343,0.0030636166528252356,0.0028297580274687607,-0.0014590952198099544,-0.004016154139252089,-0.0013702802908286621,0.009514293210455481,-0.003857038647670859,-0.0030318907225822976,0.007404956396321859,-0.003669094260249705,-0.004249033132294361,0.006139151263105034,-0.004739367709481627,-0.004770600471688312,0.01029736123047323,-0.0036919748212590592,-6.59712861806605e-05,0.002137452578952982,-0.003364497198435809,0.005161893497733637,-0.0041961309076377525,0.002331944559530133,-0.007392011557377076,0.004958839372209737,-0.0006746370640780794,-0.003335909304754922,0.00463888611928133,-0.001790123008692765,-0.0032623533012947938,0.002023669831652834,0.0027699222054379646,0.004587666385325361,0.002618149471061138,0.002508832631143843,-0.003566198432502806,0.004429529828358158,-2.933196781886069e-05,-0.0025420783510208367,0.004357927041086771,-0.0026170873546019907,0.00436452818306874,-0.0012503484458289147,0.0034049610251165184,0.00029694604219466055,0.0020226665921324956,-0.0020983431877563356,-0.0038544605153699387,-0.00083129392302595,0.0004224906088438779,0.00417426981264942,-0.006970550474807119,0.00952492663467227,-0.00946502820769397,0.0007130518383656189,-0.004215842768544485,0.008381880806575825,-0.005611631174494359,-0.00047826343495686847,0.00316002710897416,0.00041960201792824725,-0.0013805241658180814,-0.0019545682431311912,0.0002822418129225429,0.0013639349269472694,-0.0013822269981613772,0.0030422595900998434,-0.0033993485696195438,0.00463693362208983,-0.008668105410868801,0.005355883389827102,0.0017678617541779143,0.00026571433281601207,-0.0022736752396018147,0.004536981748146832,-0.0027987165215037947,-0.0018371204064539706,-0.00017704849712998468,0.006056523684415169,0.0004971451942485347,-0.004591124560170039,0.001734893322551165,-0.006340572909632758,-0.0008383276282733343,0.0036438975846671854,0.005463957876324663,-0.005119929812755505,-0.0010770908808175814,-0.00023908770476719306,0.002856192038443628,-0.0015970433646188267,-0.0023356751355463035,0.00015405997486120344,0.006480641267431531,-0.0014512294635398387,-0.004639611020530685,0.0003234058345877557,-0.0035612090570824946,0.005868974580243461,-0.0038061683128363132,-0.000571631067516082,0.0021143525097158263,0.0035388913883561135,-0.0019456627716722965,0.0018238932120347635,-0.002135316970821832,0.0018647117538774418,0.0031370869314262845,-0.0027617999491354257,-0.0014977673925271279,0.0008858127634181152,-0.001692725666012483,0.003243407522209385,0.0008880637214948084,-0.0030166854500891203,0.003445685208431405,-0.0016318885694828534,0.008689174140493753,-0.006530172796692513,-0.0017349953145017138,0.0032046561913967016,0.0005095822373723454,0.0032647341451867086,0.0017103234150866156,-0.005586978515926537,0.0028297523477935982,-0.0036310285267591104,0.005815858662513379,0.0035398730542767092,-0.0032383689917631826,0.000851410039565286,-0.0007688331982148319,-0.0004932426103956967,0.005485282773903607,-0.0003670126610555975,-0.0012386478927500458,-0.0027395581849742,-0.0031304436582879976,0.0014477189015417201,0.000910706065545646,0.0011655338349044408,0.0023538492118909144,-0.0018478842000447812,-2.8612304658830883e-06,0.0023960492387021183,0.0009304374106766394,-0.0012968871707277857,-0.00026346899048810906,-0.0031221933282661275,0.004699139194342129,-0.002372074711262331,-0.0017901313679814146,-0.006911626641330964,0.008749397219726188,-0.004902923833362948,0.009028711335647779,-0.006380810777199929,-0.00015107971388993172,0.003368368596118114,5.146076321130365e-05,-0.007307161093796235,0.0030361756285931163,0.0015625193314973535,-0.0021398291390682337,-0.0005322737614157952,0.0004469539157008122,-0.0006719265280493345,-0.0023319080108811304,-0.0018743519934641627,0.00238435348166481,0.00412457467404982,-0.007839428456103874,0.0018489455868054493,-0.0010337745506453135,0.007890852766359126,-0.00860155568627086,0.0036662901007830147,-0.0029651856093279986,-0.0015050095610295894,0.004067399977453146,-0.0047005947990832655,0.006283716061152194,-0.00508617913986586,-0.0036735485882052167,0.009388933148235358,-0.0013271626683819405,-0.0018222096212368616,0.0023891835334524936,0.0033533430168754368,-0.0022913712017484256,0.002060806663696225,0.0013528307431533188,-0.0012758181605415986,-0.004180535877477688,-0.0023931327087973377,0.005355842288835014,-0.0014147521302686115,-0.0046495743574670855,0.000755554133157372,0.0030842203292626756,-0.0009092580896700398,-0.0032248554905211515,0.002457967247348929,-0.0029139222180905792,-0.0004900640792005123,0.003395354421749682,3.2288009802218485e-05,-0.00552951489669919,-0.001814899211281713,-0.0037002921859116077,0.004181472809392171,0.003851554310869523,-0.0046374498117172204,0.003433259741772832,-0.0010107882571085778,-0.0037484918491223857,-0.002186860352726278,-0.0001933162171755167,-0.0009958637591429786,0.0036309362626933193,-0.00571135683641053,0.006836764010338755,-0.0026982536496437757,-0.008916263198652671,0.008739524042154324,-0.000947511883810225,-0.004539332834572379,-0.0006255909337608137,-0.0022483689987175867,0.004640849272458713,-0.0010284497382204048,0.0013324970612711218,-0.0013928920609059348,-0.0010985285954234114,0.001172696999904145,0.0011764672771588556,0.003711167859619176,-0.007833879976980507,0.0019869200797148347,-9.315167374854142e-05,0.0014579915132214214,-0.0012492608975960596,0.0012526485200032753,-0.0009170835233266569,-0.0002217179308267147,0.0006111097503168577,-0.0016288381613419728,0.001435375010991075,-0.0032747754515343374,0.002136213769908857,-0.0002821283973021307,0.0029835885428852347,0.0012209707223439668,-0.006602299711795367,0.01250664209920641,-0.013072568523398354,0.0059750294804623095,0.0026918045684259585,-0.005919896082820759,0.002696658247524044,-0.0010604826813580665,0.00025287722710119206,0.002147943659882578,-0.0042106005212584376,0.0003116599159243955,-0.00029074712782548604,0.007674959714170063,-0.0008755514032248684,-0.0024919126435256483,0.003966879820944277,0.0015785706798456456,0.0005654042307900732,0.003718161523780639,-0.005089010953330186,-0.0013826017037262353,-0.0038669498191311225,0.005933852543120661,0.00109996513192979,-0.0004893467682142522,-0.00427947237792272,0.0037039162027167416,-0.002491060278606626,0.0009516624865538131,-0.002386657499887866,-6.954538028687022e-05,-0.00011206522011532053,0.002246918765646996,-0.006265187242257921,0.0018609996088163197,-0.001484772792640497,0.002652247132623353,-0.001300525122304549,0.0010992941426075987,-0.001992790851887125,-0.004401317146614152,0.0029182021955611714,0.006890277995563707,1.1927565702870984e-05,-0.007828790423562465,0.0033435969771430317,0.001748249499089144,-0.009115512313025464,0.004804913195770831,0.00137384374381153,-0.0024047863929199083,-0.0032782137545399937,0.0035636126485381805,0.0016075617932421813,-0.0013127370264398597,-0.002961125017586991,-0.0037309256009066495,0.00439353021516597,-0.009794940329182678,0.00838389416961634,-0.001028226291722687,-0.009406935860418486,0.008461329924523255,-0.004299767617111868,-0.0016321505668792447,0.003084714398393624,-0.00047140726800758067,-0.0031930672932649036,-5.456218548080503e-06,-0.0048893702941847075,0.0032572028503764965,-0.0011061764661500677,-0.0009668846229437225,0.0016016464059507008,-0.006207196065000352,0.004440598485564714,0.003042725487563638,-0.0010629663441960474,-0.006193165785703674,0.00553649761350083,0.0031355100966828737,-0.0023789024727509647,-0.003614190863369593,0.0022136053836427703,0.006558124914120073,-0.008686169162562877,0.00955118268801211,-0.004007273906641787,-0.003988670172954491,-0.0013839875614958263,0.005384854653644717,0.0006871534342359969,-0.0023571840758249297,0.003648081289813453,-0.003541709733418551,0.0016712668170742223,-0.0018648151790541486,0.0014061683872536662,0.0014795767824317845,-0.007757935607043949,-0.0006409241502765339,0.0030335266897678547,0.004319103655607202,-0.004876466752803927,0.009004098068470402,0.0020263257732929434,-0.005686942747456839,0.003588569224489637,-0.001021287610746376,-0.0012531874033852386,-0.004507022749461952,-0.0056157736485596636,0.002042640343597216,0.00396860643951913,-0.0010195050986143417,0.00021906343104619676,0.0005141581254608456,-0.0008351948907995091,0.001983561303364649,-0.000823901977034151,0.0041007677462050526,-0.0009388680612891735,0.0009657250998359429,0.0020997625984565493,0.0018743590698761198,-0.007878958472031839,0.008105903501114273,0.0012905455448704419,-0.001025343957681172,0.00011793717388493808,-0.0021127728245198796,0.0012147641235337164,-0.0022288346866687187,-0.005329640518331933,0.005219743834280972,-0.0013451884183795287,-0.000869970441339478,0.0018745160287188933,0.0010959876467533383,-0.0009814128500556323,-0.0012749311210122085,-0.0011027498653831303,0.002964411721513333,-0.0026925023749107165,0.0008516875151646116,0.0014702716861311103,-0.002559494717223684,0.0010486074833007226,-0.0001750610645718568,-0.006929056332662307,0.008095376366315282,-0.009146658932703618,1.75924665257831e-05,0.0035231409657574555,0.003884190712356625,0.001709287347105008,-0.004884229027742591,0.004226082650138097,-0.003973212467221157,-0.002436736809703372,0.006532655789317981,-0.006516711817525215,0.0028701223860499166,0.0043385365785947,-0.004597790891137793,0.0008988423628536023,-0.0028655032914369737,0.001008112799226544,0.003484789162481976,-0.006085916675273014,0.003719884849984385,0.0027419206796520336,0.004500990982556862,-0.001569012474212908,0.004787330753685498,-0.0032829582065073155,-0.000499797233147266,0.0008108074796775651,-0.0017471448261009415,0.004513944533980647,-0.003701735059541138,-0.002081227393109918,0.008420015127598034,-0.001853153965231612,-0.0018005371176930975,0.002723015142394602,0.003254084938882993,-0.004410333208144013,0.0010857667258835004,-0.005373085342538696,-0.000161018249685651,0.003404758687722091,0.00641539118877546,-0.009312724214421659,0.00604725887177338,-0.0033417140834888868,0.0018350197716787064,-0.0030005724583910083,0.0024336286321445405,-0.0015190681976257447,0.001030380416693277,-0.0033579746656012747,-0.001295766053679836,0.006608614502398735,-0.0021063803717057913,0.006370005001784042,-6.798048172250541e-06,0.0015418781365832662,0.000977587436244608,-0.0011795735061206315,-0.005770244676510427,-0.004572244370760751,0.0070734712202917445,-0.001768085791676291,0.0054275370495615715,-0.002742824521148546,-0.004591373647636083,0.0034297475203124116,-0.000577779630840472,-0.00014640367522998583,-0.0010815711137424943,0.003787885944607392,0.0002662109235011279,-0.004182583568036126,0.003908120111793201,-0.005022758379518305,0.003211430936290973,-0.005512974035597168,0.0008160210215105944,0.0052657388904553334,-0.0034346749423181315,-0.0009280484520487861,-0.003036362067721434,0.006680771396604968,-0.001974096289374074,-0.0031643209076153925,0.00018617385758490625,0.0035503279396424327,-0.002188504523891072,-0.0044690643189489706,-0.0031539861370246634,0.0013954167413444494,0.0014303857409230817,0.002925019036574329,-0.003054936226997043,-0.0015336134899070519,2.8735682699602242e-05,-0.004123146606635382,0.0031077171508101637,0.0068429750616155315,-0.0038395889939415117,-0.005741394402306984,0.006915027313461244,-0.0029927919082192458,-0.0015767246634233573,0.003534752811054147,0.0004442060318262539,-0.0031695977196979676,0.0017963993414193168,0.00041622628042784854,0.0012904877427100225,0.0017895577365578167,-0.0021753801689400444,-0.008292886604168728,0.007656031679716708,-6.554139182362091e-05,0.0008192284657617578,0.0013623014033944767,-0.0024876633483678005,0.0009901852273420109,0.0026507399607453245,-0.00658523920510357,0.006696909795151615,-0.00508331189210905,0.0008961153904395229,0.0020195693827618965,-0.00013612167767282918,0.002946769729116967,-0.0017709320032001613,0.00022758964717894595,-0.001415715661421849,-0.002162531505733928,0.0013946695468053027,0.011302383260401368,-0.013231891269394192,0.0012794723960085034,0.0034623623673222586,-0.011147728287763585,0.0039556474699977895,0.0012240408401684424,-0.0021421371864533923,0.005714674195232422,0.0006001906620226452,0.0018049379616561067,-0.005445189353150705,-0.0011474089892147318,0.004677900201505611,-0.001654186328330121,0.0018344380002921546,-0.0015340525435056395,0.003078592236353624,-0.0026117853526321753,0.004856043398575724,-0.0028843103026356793,0.00012496527887815906,0.0038512155946765227,-0.007351482586127203,0.003289736238880129,0.0037449274449002706,-0.002331659054870956,0.00046350822378741217,0.0012899474514006764,-0.0004152863295264858,-0.0001999277143000492,-0.0011025967939564659,0.0036152673601721275,-0.007328069476167668,0.004178255692372446,-0.006243685479991532,0.0014816117987908517,0.003246387604926127,-0.00017118084233135725,0.0005966810152391555,-0.004527259472713949,0.006543311395883682,-0.002448384110396862,-0.003406492854769702,0.005167889444148104,0.007076878422500393,-0.00420980700982348,0.0013302314453208224,-0.0016533786365159858,0.008069597315228615,-0.005833593905617681,-0.00807598652198217,0.006082491012086189,-0.002639825175880248,-0.0019687233631222557,0.0035823644638141093,0.001254695419693625,-0.0026679145224879253,-0.00383180372149585,0.002783107496562708,-0.00010063571868685715,-0.0016116002264675827,0.0016012267294106103,0.0007932587454577211,-0.0007979437782862675,0.00341572472412959,0.0006961390236329911,-0.0010448046916971111,-0.00260833113498775,0.0010556040931226148,-0.0007723673841747346,0.0009982448348943582,0.0021249437061508954,-0.0018780660715241283,0.003122647568559776,-0.0004696894049358112,0.001598752633512806,-0.004914505692152604,0.00013347917215813382,0.0017466331124931522,-0.006682703814735228,0.0038171626057254774,-0.000395169061166442,-0.0022591467316841656,0.0030075301929970814,-0.00032045289448958314,0.0021699857130234963,0.005091987564534265,0.00046379635714007965,-0.0042604871342682895,0.0017467892562868868,0.0008813921994873262,0.0012392122638779065,-0.00026238058282680526,-0.0017912744720445788,0.0016336217037310591,-0.004209040099893613,0.0017520435360470893,0.00016168018938990018,0.0008782231303680873,-0.006240113479350766,0.00469646309703323,-0.0012770238268666992,-0.0010285904898850989,-0.0008302244122216962,0.0012276358984732512,0.003567731192789251,-0.002617745750293759,-0.0029154109697725385,0.004118141969121414,-0.0050629450021278275,-0.0018675251564994493,0.005347017076838185,-0.0034613578924993053,0.0005795192939217722,-0.0037249921640425303,0.0020640605597140997,0.00495920628660119,-0.0034514123257406164,-0.006377353723878304,0.0013500223826524982,0.0025987696103856694,0.0023379839776362975,-0.0037174580484395027,-0.00022922540895845922,-0.00243466824262427,0.007455288080086398,-0.0011801935814230785,0.002363422451145771,-0.00406130537239611,-0.0010008269720144913,-0.000711508580759956,-0.004128144486868281,0.0003383719848809234,-0.00022487961181309038,0.0005408990358358078,-0.002733014568069278,0.0004636569568265731,0.005347024461735164,-0.00043260920856113714,-0.007560277926570816,-0.0010122875157512817,0.006141977601234952,0.0006868308083874864,-0.0027280613691299904,0.002504710245757489,-0.0009496200370895909,-0.0019648601477903656,0.004437002228120165,-0.003362613990297245,0.001617984428541234,-0.0010293029586418518,-0.0034613782624182228,0.0026309155933885715,0.001958539322808461,-0.002532401935339798,0.004808208140878687,0.0005405928636139741,-0.0005464065872243939,0.0016919410145775913,-0.006355252416664482,0.006818501664748629,0.0028036651063785855,-0.0009475263890138244,-0.002534739499019841,-0.0035341787227359256,0.004808115042132622,-0.0031246561579981818,0.001985581701102094,0.002928263263287155,-0.006263874217707516,0.004188826577037346,0.00021046686335728378,-0.004010772240823892,0.001811646761035895,0.004692961760689597,-0.005477681624841236,-0.0006390728019111086,0.001186206543956447,-0.0003520926059531611,0.004646528353658275,-0.00656481034887966,0.0015431250851748717,0.0042787287835564835,-0.0023467349656369043,-0.0010327766052192972,-0.003907003678207497,-0.005057912050989972,0.0025649327072238544,0.001037670109378122,0.0068211898708464115,-0.001242083030699118,-0.0006396025616136297,0.006651818333351639,-0.004336360343312961,0.00029913878369793094,-0.0024326697968524115,-0.00012281723864146886,0.004082492829863896,-0.0021618698525032645,0.004313581656397351,-0.0057842056504907825,0.001535813710595445,-0.0030225415957732095,0.0027078130875348525,-4.643983802740094e-05,-0.002198047225275201,0.004296788505647854,-0.0005834556575715287,-0.003450377969968804,-0.00494118796667572,0.00390675112522003,-0.0054431090560790076,0.0010095550296705103,-0.0004482726549637692,0.0025865048619958214,0.00026342570885786717,-0.0021081446648730964,-0.0005594829214072398,-0.009019425417285171,0.004466394337675885,0.0015503182078485977,-0.002563600057935103,-0.0018179214290305235,-0.0009154380056998413,0.008613331911663816,-0.004551684552392752,-0.0047425792044432655,-0.0005539909759283087,0.005755840539344069,0.0005066803352954789,0.00030813765662410133,-0.002784994838682814,0.0033962653968144098,-0.0014413428697169766,0.000720387184119453,-0.00405865018976765,0.0007866390394534673,-0.00636879451748438,0.0013010528973114784,0.0030972048024017307,0.0030538005927220214,-0.0036236257532953884,-0.004271397786647685,2.6584520309959616e-05,-6.595520391738153e-05,0.0018337810971182445,0.0003296240622407598,0.004155998440134854,-0.006120917757602164,0.0020743608997589873,0.00023548157250711716,0.003121912979704539,-0.003405696676379539,-0.004321781282801645,0.001271221266192539,-0.0038320956616208755,0.0005015359053553461,0.0016827847987157655,0.0011144082732357833,-0.002494536152688356,-0.0012097671211698758,0.00616613182641508,-0.004348850562515213,0.003464194203494065,0.00010804458141710681,0.0005642500122881295,-6.623560340119233e-05,-0.002624403731873997,-0.001034783114554412,-0.0001958579955384526,0.0037697984147178677,-0.0012489697470698085,-0.004144495820566778,0.0018249666366927455,-0.007816697933729293,0.004306476243137696,-0.002351190019771665,-0.0004152943116351662,0.0032452720018138386,-0.0047613123566572066,0.0067442952105355395,-0.005128360981856587,0.006481982790454629,-0.003702992484619472,0.0006366241418235904,0.002389415690418235,0.003920093993564943,0.0015239067187050909,-0.0024541523889068297,0.002333696311111745,-0.001543588912380667,-0.0033184876325431777,0.003790580949043672,0.0015586041593413967,-0.004627213935287649,0.0032823936526816515,0.004556719072684283,