,0,1,2,3,4,5,6,7,8,9,10,11,12,13,14,15,16,17,18,19,20,21,22,23,24,25,26,27,28,29,30,31,32,33,34,35,36,37,38,39,40,41,42,43,44,45,46,47,48,49,50,51,52,53,54,55,56,57,58,59,60,61,62,63,64,65,66,67,68,69,70,71,72,73,74,75,76,77,78,79,80,81,82,83,84,85,86,87,88,89,90,91,92,93,94,95,96,97,98,99,100,101,102,103,104,105,106,107,108,109,110,111,112,113,114,115,116,117,118,119,120,121,122,123,124,125,126,127,128,129,130,131,132,133,134,135,136,137,138,139,140,141,142,143,144,145,146,147,148,149,150,151,152,153,154,155,156,157,158,159,160,161,162,163,164,165,166,167,168,169,170,171,172,173,174,175,176,177,178,179,180,181,182,183,184,185,186,187,188,189,190,191,192,193,194,195,196,197,198,199,200,201,202,203,204,205,206,207,208,209,210,211,212,213,214,215,216,217,218,219,220,221,222,223,224,225,226,227,228,229,230,231,232,233,234,235,236,237,238,239,240,241,242,243,244,245,246,247,248,249,250,251,252,253,254,255,256,257,258,259,260,261,262,263,264,265,266,267,268,269,270,271,272,273,274,275,276,277,278,279,280,281,282,283,284,285,286,287,288,289,290,291,292,293,294,295,296,297,298,299,300,301,302,303,304,305,306,307,308,309,310,311,312,313,314,315,316,317,318,319,320,321,322,323,324,325,326,327,328,329,330,331,332,333,334,335,336,337,338,339,340,341,342,343,344,345,346,347,348,349,350,351,352,353,354,355,356,357,358,359,360,361,362,363,364,365,366,367,368,369,370,371,372,373,374,375,376,377,378,379,380,381,382,383,384,385,386,387,388,389,390,391,392,393,394,395,396,397,398,399,400,401,402,403,404,405,406,407,408,409,410,411,412,413,414,415,416,417,418,419,420,421,422,423,424,425,426,427,428,429,430,431,432,433,434,435,436,437,438,439,440,441,442,443,444,445,446,447,448,449,450,451,452,453,454,455,456,457,458,459,460,461,462,463,464,465,466,467,468,469,470,471,472,473,474,475,476,477,478,479,480,481,482,483,484,485,486,487,488,489,490,491,492,493,494,495,496,497,498,499,500,501,502,503,504,505,506,507,508,509,510,511,512,513,514,515,516,517,518,519,520,521,522,523,524,525,526,527,528,529,530,531,532,533,534,535,536,537,538,539,540,541,542,543,544,545,546,547,548,549,550,551,552,553,554,555,556,557,558,559,560,561,562,563,564,565,566,567,568,569,570,571,572,573,574,575,576,577,578,579,580,581,582,583,584,585,586,587,588,589,590,591,592,593,594,595,596,597,598,599,600,601,602,603,604,605,606,607,608,609,610,611,612,613,614,615,616,617,618,619,620,621,622,623,624,625,626,627,628,629,630,631,632,633,634,635,636,637,638,639,640,641,642,643,644,645,646,647,648,649,650,651,652,653,654,655,656,657,658,659,660,661,662,663,664,665,666,667,668,669,670,671,672,673,674,675,676,677,678,679,680,681,682,683,684,685,686,687,688,689,690,691,692,693,694,695,696,697,698,699,700,701,702,703,704,705,706,707,708,709,710,711,712,713,714,715,716,717,718,719,720,721,722,723,724,725,726,727,728,729,730,731,732,733,734,735,736,737,738,739,740,741,742,743,744,745,746,747,748,749,750,751,752,753,754,755,756,757,758,759,760,761,762,763,764,765,766,767,768,769,770,771,772,773,774,775,776,777,778,779,780,781,782,783,784,785,786,787,788,789,790,791,792,793,794,795,796,797,798,799,800,801,802,803,804,805,806,807,808,809,810,811,812,813,814,815,816,817,818,819,820,821,822,823,824,825,826,827,828,829,830,831,832,833,834,835,836,837,838,839,840,841,842,843,844,845,846,847,848,849,850,851,852,853,854,855,856,857,858,859,860,861,862,863,864,865,866,867,868,869,870,871,872,873,874,875,876,877,878,879,880,881,882,883,884,885,886,887,888,889,890,891,892,893,894,895,896,897,898,899,900,901,902,903,904,905,906,907,908,909,910,911,912,913,914,915,916,917,918,919,920,921,922,923,924,925,926,927,928,929,930,931,932,933,934,935,936,937,938,939,940,941,942,943,944,945,946,947,948,949,950,951,952,953,954,955,956,957,958,959,960,961,962,963,964,965,966,967,968,969,970,971,972,973,974,975,976,977,978,979,980,981,982,983,984,985,986,987,988,989,990,991,992,993,994,995,996,997,998,999,1000,1001,1002,1003,1004,1005,1006,1007,1008,1009,1010,1011,1012,1013,1014,1015,1016,1017,1018,1019,1020,1021,1022,1023,1024,1025,1026,1027,1028,1029,1030,1031,1032,1033,1034,1035,1036,1037,1038,1039,1040,1041,1042,1043,1044,1045,1046,1047,1048,1049,1050,1051,1052,1053,1054,1055,1056,1057,1058,1059,1060,1061,1062,1063,1064,1065,1066,1067,1068,1069,1070,1071,1072,1073,1074,1075,1076,1077,1078,1079,1080,1081,1082,1083,1084,1085,1086,1087,1088,1089,1090,1091,1092,1093,1094,1095,1096,1097,1098,1099,1100,1101,1102,1103,1104,1105,1106,1107,1108,1109,1110,1111,1112,1113,1114,1115,1116,1117,1118,1119,1120,1121,1122,1123,1124,1125,1126,1127,1128,1129,1130,1131,1132,1133,1134,1135,1136,1137,1138,1139,1140,1141,1142,1143,1144,1145,1146,1147,1148,1149,1150,1151,1152,1153,1154,1155,1156,1157,1158,1159,1160,1161,1162,1163,1164,1165,1166,1167,1168,1169,1170,1171,1172,1173,1174,1175,1176,1177,1178,1179,1180,1181,1182,1183,1184,1185,1186,1187,1188,1189,1190,1191,1192,1193,1194,1195,1196,1197,1198,1199,1200,1201,1202,1203,1204,1205,1206,1207,1208,1209,1210,1211,1212,1213,1214,1215,1216,1217,1218,1219,1220,1221,1222,1223,1224,1225,1226,1227,1228,1229,1230,1231,1232,1233,1234,1235,1236,1237,1238,1239,1240,1241,1242,1243,1244,1245,1246,1247,1248,1249,1250,1251,1252,1253,1254,1255,1256,1257,1258,1259,1260,1261,1262,1263,1264,1265,1266,1267,1268,1269,1270,1271,1272,1273,1274,1275,1276,1277,1278,1279,1280,1281,1282,1283,1284,1285,1286,1287,1288,1289,1290,1291,1292,1293,1294,1295,1296,1297,1298,1299,1300,1301,1302,1303,1304,1305,1306,1307,1308,1309,1310,1311,1312,1313,1314,1315,1316,1317,1318,1319,1320,1321,1322,1323,1324,1325,1326,1327,1328,1329,1330,1331,1332,1333,1334,1335,1336,1337,1338,1339,1340,1341,1342,1343,1344,1345,1346,1347,1348,1349,1350,1351,1352,1353,1354,1355,1356,1357,1358,1359,1360,1361,1362,1363,1364,1365,1366,1367,1368,1369,1370,1371,1372,1373,1374,1375,1376,1377,1378,1379,1380,1381,1382,1383,1384,1385,1386,1387,1388,1389,1390,1391,1392,1393,1394,1395,1396,1397,1398,1399,1400,1401,1402,1403,1404,1405,1406,1407,1408,1409,1410,1411,1412,1413,1414,1415,1416,1417,1418,1419,1420,1421,1422,1423,1424,1425,1426,1427,1428,1429,1430,1431,1432,1433,1434,1435,1436,1437,1438,1439,1440,1441,1442,1443,1444,1445,1446,1447,1448,1449,1450,1451,1452,1453,1454,1455,1456,1457,1458,1459,1460,1461,1462,1463,1464,1465,1466,1467,1468,1469,1470,1471,1472,1473,1474,1475,1476,1477,1478,1479,1480,1481,1482,1483,1484,1485,1486,1487,1488,1489,1490,1491,1492,1493,1494,1495,1496,1497,1498,1499,1500,1501,1502,1503,1504,1505,1506,1507,1508,1509,1510,1511,1512,1513,1514,1515,1516,1517,1518,1519,1520,1521,1522,1523,1524,1525,1526,1527,1528,1529,1530,1531,1532,1533,1534,1535,1536,1537,1538,1539,1540,1541,1542,1543,1544,1545,1546,1547,1548,1549,1550,1551,1552,1553,1554,1555,1556,1557,1558,1559,1560,1561,1562,1563,1564,1565,1566,1567,1568,1569,1570,1571,1572,1573,1574,1575,1576,1577,1578,1579,1580,1581,1582,1583,1584,1585,1586,1587,1588,1589,1590,1591,1592,1593,1594,1595,1596,1597,1598,1599,1600,1601,1602,1603,1604,1605,1606,1607,1608,1609,1610,1611,1612,1613,1614,1615,1616,1617,1618,1619,1620,1621,1622,1623,1624,1625,1626,1627,1628,1629,1630,1631,1632,1633,1634,1635,1636,1637,1638,1639,1640,1641,1642,1643,1644,1645,1646,1647,1648,1649,1650,1651,1652,1653,1654,1655,1656,1657,1658,1659,1660,1661,1662,1663,1664,1665,1666,1667,1668,1669,1670,1671,1672,1673,1674,1675,1676,1677,1678,1679,1680,1681,1682,1683,1684,1685,1686,1687,1688,1689,1690,1691,1692,1693,1694,1695,1696,1697,1698,1699,1700,1701,1702,1703,1704,1705,1706,1707,1708,1709,1710,1711,1712,1713,1714,1715,1716,1717,1718,1719,1720,1721,1722,1723,1724,1725,1726,1727,1728,1729,1730,1731,1732,1733,1734,1735,1736,1737,1738,1739,1740,1741,1742,1743,1744,1745,1746,1747,1748,1749,1750,1751,1752,1753,1754,1755,1756,1757,1758,1759,1760,1761,1762,1763,1764,1765,1766,1767,1768,1769,1770,1771,1772,1773,1774,1775,1776,1777,1778,1779,1780,1781,1782,1783,1784,1785,1786,1787,1788,1789,1790,1791,1792,1793,1794,1795,1796,1797,1798,1799,1800,1801,1802,1803,1804,1805,1806,1807,1808,1809,1810,1811,1812,1813,1814,1815,1816,1817,1818,1819,1820,1821,1822,1823,1824,1825,1826,1827,1828,1829,1830,1831,1832,1833,1834,1835,1836,1837,1838,1839,1840,1841,1842,1843,1844,1845,1846,1847,1848,1849,1850,1851,1852,1853,1854,1855,1856,1857,1858,1859,1860,1861,1862,1863,1864,1865,1866,1867,1868,1869,1870,1871,1872,1873,1874,1875,1876,1877,1878,1879,1880,1881,1882,1883,1884,1885,1886,1887,1888,1889,1890,1891,1892,1893,1894,1895,1896,1897,1898,1899,1900,1901,1902,1903,1904,1905,1906,1907,1908,1909,1910,1911,1912,1913,1914,1915,1916,1917,1918,1919,1920,1921,1922,1923,1924,1925,1926,1927,1928,1929,1930,1931,1932,1933,1934,1935,1936,1937,1938,1939,1940,1941,1942,1943,1944,1945,1946,1947,1948,1949,1950,1951,1952,1953,1954,1955,1956,1957,1958,1959,1960,1961,1962,1963,1964,1965,1966,1967,1968,1969,1970,1971,1972,1973,1974,1975,1976,1977,1978,1979,1980,1981,1982,1983,1984,1985,1986,1987,1988,1989,1990,1991,1992,1993,1994,1995,1996,1997,1998,1999,2000,2001,2002,2003,2004,2005,2006,2007,2008,2009,2010,2011,2012,2013,2014,2015,2016,2017,2018,2019,2020,2021,2022,2023,2024,2025,2026,2027,2028,2029,2030,2031,2032,2033,2034,2035,2036,2037,2038,2039,2040,2041,2042,2043,2044,2045,2046,2047,2048,2049,2050,2051,2052,2053,2054,2055,2056,2057,2058,2059,2060,2061,2062,2063,2064,2065,2066,2067,2068,2069,2070,2071,2072,2073,2074,2075,2076,2077,2078,2079,2080,2081,2082,2083,2084,2085,2086,2087,2088,2089,2090,2091,2092,2093,2094,2095,2096,2097,2098,2099,2100,2101,2102,2103,2104,2105,2106,2107,2108,2109,2110,2111,2112,2113,2114,2115,2116,2117,2118,2119,2120,2121,2122,2123,2124,2125,2126,2127,2128,2129,2130,2131,2132,2133,2134,2135,2136,2137,2138,2139,2140,2141,2142,2143,2144,2145,2146,2147,2148,2149,2150,2151,2152,2153,2154,2155,2156,2157,2158,2159,2160,2161,2162,2163,2164,2165,2166,2167,2168,2169,2170,2171,2172,2173,2174,2175,2176,2177,2178,2179,2180,2181,2182,2183,2184,2185,2186,2187,2188,2189,2190,2191,2192,2193,2194,2195,2196,2197,2198,2199,2200,2201,2202,2203,2204,2205,2206,2207,2208,2209,2210,2211,2212,2213,2214,2215,2216,2217,2218,2219,2220,2221,2222,2223,2224,2225,2226,2227,2228,2229,2230,2231,2232,2233,2234,2235,2236,2237,2238,2239,2240,2241,2242,2243,2244,2245,2246,2247,2248,2249,2250,2251,2252,2253,2254,2255,2256,2257,2258,2259,2260,2261,2262,2263,2264,2265,2266,2267,2268,2269,2270,2271,2272,2273,2274,2275,2276,2277,2278,2279,2280,2281,2282,2283,2284,2285,2286,2287,2288,2289,2290,2291,2292,2293,2294,2295,2296,2297,2298,2299,2300,2301,2302,2303,2304,2305,2306,2307,2308,2309,2310,2311,2312,2313,2314,2315,2316,2317,2318,2319,2320,2321,2322,2323,2324,2325,2326,2327,2328,2329,2330,2331,2332,2333,2334,2335,2336,2337,2338,2339,2340,2341,2342,2343,2344,2345,2346,2347,2348,2349,2350,2351,2352,2353,2354,2355,2356,2357,2358,2359,2360,2361,2362,2363,2364,2365,2366,2367,2368,2369,2370,2371,2372,2373,2374,2375,2376,2377,2378,2379,2380,2381,2382,2383,2384,2385,2386,2387,2388,2389,2390,2391,2392,2393,2394,2395,2396,2397,2398,2399,2400,2401,2402,2403,2404,2405,2406,2407,2408,2409,2410,2411,2412,2413,2414,2415,2416,2417,2418,2419,2420,2421,2422,2423,2424,2425,2426,2427,2428,2429,2430,2431,2432,2433,2434,2435,2436,2437,2438,2439,2440,2441,2442,2443,2444,2445,2446,2447,2448,2449,2450,2451,2452,2453,2454,2455,2456,2457,2458,2459,2460,2461,2462,2463,2464,2465,2466,2467,2468,2469,2470,2471,2472,2473,2474,2475,2476,2477,2478,2479,2480,2481,2482,2483,2484,2485,2486,2487,2488,2489,2490,2491,2492,2493,2494,2495,2496,2497,2498,2499,2500,2501,2502,2503,2504,2505,2506,2507,2508,2509,2510,2511,2512,2513,2514,2515,2516,2517,2518,2519,2520,2521,2522,2523,2524,2525,2526,2527,2528,2529,2530,2531,2532,2533,2534,2535,2536,2537,2538,2539,2540,2541,2542,2543,2544,2545,2546,2547,2548,2549,2550,2551,2552,2553,2554,2555,2556,2557,2558,2559,2560,2561,2562,2563,2564,2565,2566,2567,2568,2569,2570,2571,2572,2573,2574,2575,2576,2577,2578,2579,2580,2581,2582,2583,2584,2585,2586,2587,2588,2589,2590,2591,2592,2593,2594,2595,2596,2597,2598,2599,2600,2601,2602,2603,2604,2605,2606,2607,2608,2609,2610,2611,2612,2613,2614,2615,2616,2617,2618,2619,2620,2621,2622,2623,2624,2625,2626,2627,2628,2629,2630,2631,2632,2633,2634,2635,2636,2637,2638,2639,2640,2641,2642,2643,2644,2645,2646,2647,2648,2649,2650,2651,2652,2653,2654,2655,2656,2657,2658,2659,2660,2661,2662,2663,2664,2665,2666,2667,2668,2669,2670,2671,2672,2673,2674,2675,2676,2677,2678,2679,2680,2681,2682,2683,2684,2685,2686,2687,2688,2689,2690,2691,2692,2693,2694,2695,2696,2697,2698,2699,2700,2701,2702,2703,2704,2705,2706,2707,2708,2709,2710,2711,2712,2713,2714,2715,2716,2717,2718,2719,2720,2721,2722,2723,2724,2725,2726,2727,2728,2729,2730,2731,2732,2733,2734,2735,2736,2737,2738,2739,2740,2741,2742,2743,2744,2745,2746,2747,2748,2749,2750,2751,2752,2753,2754,2755,2756,2757,2758,2759,2760,2761,2762,2763,2764,2765,2766,2767,2768,2769,2770,2771,2772,2773,2774,2775,2776,2777,2778,2779,2780,2781,2782,2783,2784,2785,2786,2787,2788,2789,2790,2791,2792,2793,2794,2795,2796,2797,2798,2799,2800,2801,2802,2803,2804,2805,2806,2807,2808,2809,2810,2811,2812,2813,2814,2815,2816,2817,2818,2819,2820,2821,2822,2823,2824,2825,2826,2827,2828,2829,2830,2831,2832,2833,2834,2835,2836,2837,2838,2839,2840,2841,2842,2843,2844,2845,2846,2847,2848,2849,2850,2851,2852,2853,2854,2855,2856,2857,2858,2859,2860,2861,2862,2863,2864,2865,2866,2867,2868,2869,2870,2871,2872,2873,2874,2875,2876,2877,2878,2879,2880,2881,2882,2883,2884,2885,2886,2887,2888,2889,2890,2891,2892,2893,2894,2895,2896,2897,2898,2899,2900,2901,2902,2903,2904,2905,2906,2907,2908,2909,2910,2911,2912,2913,2914,2915,2916,2917,2918,2919,2920,2921,2922,2923,2924,2925,2926,2927,2928,2929,2930,2931,2932,2933,2934,2935,2936,2937,2938,2939,2940,2941,2942,2943,2944,2945,2946,2947,2948,2949,2950,2951,2952,2953,2954,2955,2956,2957,2958,2959,2960,2961,2962,2963,2964,2965,2966,2967,2968,2969,2970,2971,2972,2973,2974,2975,2976,2977,2978,2979,2980,2981,2982,2983,2984,2985,2986,2987,2988,2989,2990,2991,2992,2993,2994,2995,2996,2997,2998,2999,3000,3001,3002,3003,3004,3005,3006,3007,3008,3009,3010,3011,3012,3013,3014,3015,3016,3017,3018,3019,3020,3021,3022,3023,3024,3025,3026,3027,3028,3029,3030,3031,3032,3033,3034,3035,3036,3037,3038,3039,3040,3041,3042,3043,3044,3045,3046,3047,3048,3049,3050,3051,3052,3053,3054,3055,3056,3057,3058,3059,3060,3061,3062,3063,3064,3065,3066,3067,3068,3069,3070,3071,3072,3073,3074,3075,3076,3077,3078,3079,3080,3081,3082,3083,3084,3085,3086,3087,3088,3089,3090,3091,3092,3093,3094,3095,3096,3097,3098,3099,3100,3101,3102,3103,3104,3105,3106,3107,3108,3109,3110,3111,3112,3113,3114,3115,3116,3117,3118,3119,3120,3121,3122,3123,3124,3125,3126,3127,3128,3129,3130,3131,3132,3133,3134,3135,3136,3137,3138,3139,3140,3141,3142,3143,3144,3145,3146,3147,3148,3149,3150,3151,3152,3153,3154,3155,3156,3157,3158,3159,3160,3161,3162,3163,3164,3165,3166,3167,3168,3169,3170,3171,3172,3173,3174,3175,3176,3177,3178,3179,3180,3181,3182,3183,3184,3185,3186,3187,3188,3189,3190,3191,3192,3193,3194,3195,3196,3197,3198,3199,3200,3201,3202,3203,3204,3205,3206,3207,3208,3209,3210,3211,3212,3213,3214,3215,3216,3217,3218,3219,3220,3221,3222,3223,3224,3225,3226,3227,3228,3229,3230,3231,3232,3233,3234,3235,3236,3237,3238,3239,3240,3241,3242,3243,3244,3245,3246,3247,3248,3249,3250,3251,3252,3253,3254,3255,3256,3257,3258,3259,3260,3261,3262,3263,3264,3265,3266,3267,3268,3269,3270,3271,3272,3273,3274,3275,3276,3277,3278,3279,3280,3281,3282,3283,3284,3285,3286,3287,3288,3289,3290,3291,3292,3293,3294,3295,3296,3297,3298,3299,3300,3301,3302,3303,3304,3305,3306,3307,3308,3309,3310,3311,3312,3313,3314,3315,3316,3317,3318,3319,3320,3321,3322,3323,3324,3325,3326,3327,3328,3329,3330,3331,3332,3333,3334,3335,3336,3337,3338,3339,3340,3341,3342,3343,3344,3345,3346,3347,3348,3349,3350,3351,3352,3353,3354,3355,3356,3357,3358,3359,3360,3361,3362,3363,3364,3365,3366,3367,3368,3369,3370,3371,3372,3373,3374,3375,3376,3377,3378,3379,3380,3381,3382,3383,3384,3385,3386,3387,3388,3389,3390,3391,3392,3393,3394,3395,3396,3397,3398,3399,3400,3401,3402,3403,3404,3405,3406,3407,3408,3409,3410,3411,3412,3413,3414,3415,3416,3417,3418,3419,3420,3421,3422,3423,3424,3425,3426,3427,3428,3429,3430,3431,3432,3433,3434,3435,3436,3437,3438,3439,3440,3441,3442,3443,3444,3445,3446,3447,3448,3449,3450,3451,3452,3453,3454,3455,3456,3457,3458,3459,3460,3461,3462,3463,3464,3465,3466,3467,3468,3469,3470,3471,3472,3473,3474,3475,3476,3477,3478,3479,3480,3481,3482,3483,3484,3485,3486,3487,3488,3489,3490,3491,3492,3493,3494,3495,3496,3497,3498,3499,3500,3501,3502,3503,3504,3505,3506,3507,3508,3509,3510,3511,3512,3513,3514,3515,3516,3517,3518,3519,3520,3521,3522,3523,3524,3525,3526,3527,3528,3529,3530,3531,3532,3533,3534,3535,3536,3537,3538,3539,3540,3541,3542,3543,3544,3545,3546,3547,3548,3549,3550,3551,3552,3553,3554,3555,3556,3557,3558,3559,3560,3561,3562,3563,3564,3565,3566,3567,3568,3569,3570,3571,3572,3573,3574,3575,3576,3577,3578,3579,3580,3581,3582,3583,3584,3585,3586,3587,3588,3589,3590,3591,3592,3593,3594,3595,3596,3597,3598,3599,3600,3601,3602,3603,3604,3605,3606,3607,3608,3609,3610,3611,3612,3613,3614,3615,3616,3617,3618,3619,3620,3621,3622,3623,3624,3625,3626,3627,3628,3629,3630,3631,3632,3633,3634,3635,3636,3637,3638,3639,3640,3641,3642,3643,3644,3645,3646,3647,3648,3649,3650,3651,3652,3653,3654,3655,3656,3657,3658,3659,3660,3661,3662,3663,3664,3665,3666,3667,3668,3669,3670,3671,3672,3673,3674,3675,3676,3677,3678,3679,3680,3681,3682,3683,3684,3685,3686,3687,3688,3689,3690,3691,3692,3693,3694,3695,3696,3697,3698,3699,3700,3701,3702,3703,3704,3705,3706,3707,3708,3709,3710,3711,3712,3713,3714,3715,3716,3717,3718,3719,3720,3721,3722,3723,3724,3725,3726,3727,3728,3729,3730,3731,3732,3733,3734,3735,3736,3737,3738,3739,3740,3741,3742,3743,3744,3745,3746,3747,3748,3749,3750,3751,3752,3753,3754,3755,3756,3757,3758,3759,3760,3761,3762,3763,3764,3765,3766,3767,3768,3769,3770,3771,3772,3773,3774,3775,3776,3777,3778,3779,3780,3781,3782,3783,3784,3785,3786,3787,3788,3789,3790,3791,3792,3793,3794,3795,3796,3797,3798,3799,3800,3801,3802,3803,3804,3805,3806,3807,3808,3809,3810,3811,3812,3813,3814,3815,3816,3817,3818,3819,3820,3821,3822,3823,3824,3825,3826,3827,3828,3829,3830,3831,3832,3833,3834,3835,3836,3837,3838,3839,3840,3841,3842,3843,3844,3845,3846,3847,3848,3849,3850,3851,3852,3853,3854,3855,3856,3857,3858,3859,3860,3861,3862,3863,3864,3865,3866,3867,3868,3869,3870,3871,3872,3873,3874,3875,3876,3877,3878,3879,3880,3881,3882,3883,3884,3885,3886,3887,3888,3889,3890,3891,3892,3893,3894,3895,3896,3897,3898,3899,3900,3901,3902,3903,3904,3905,3906,3907,3908,3909,3910,3911,3912,3913,3914,3915,3916,3917,3918,3919,3920,3921,3922,3923,3924,3925,3926,3927,3928,3929,3930,3931,3932,3933,3934,3935,3936,3937,3938,3939,3940,3941,3942,3943,3944,3945,3946,3947,3948,3949,3950,3951,3952,3953,3954,3955,3956,3957,3958,3959,3960,3961,3962,3963,3964,3965,3966,3967,3968,3969,3970,3971,3972,3973,3974,3975,3976,3977,3978,3979,3980,3981,3982,3983,3984,3985,3986,3987,3988,3989,3990,3991,3992,3993,3994,3995,3996,3997,3998,3999,4000,4001,4002,4003,4004,4005,4006,4007,4008,4009,4010,4011,4012,4013,4014,4015,4016,4017,4018,4019,4020,4021,4022,4023,4024,4025,4026,4027,4028,4029,4030,4031,4032,4033,4034,4035,4036,4037,4038,4039,4040,4041,4042,4043,4044,4045,4046,4047,4048,4049,4050,4051,4052,4053,4054,4055,4056,4057,4058,4059,4060,4061,4062,4063,4064,4065,4066,4067,4068,4069,4070,4071,4072,4073,4074,4075,4076,4077,4078,4079,4080,4081,4082,4083,4084,4085,4086,4087,4088,4089,4090,4091,4092,4093,4094,4095,4096,4097,4098,4099,4100,4101,4102,4103,4104,4105,4106,4107,4108,4109,4110,4111,4112,4113,4114,4115,4116,4117,4118,4119,4120,4121,4122,4123,4124,4125,4126,4127,4128,4129,4130,4131,4132,4133,4134,4135,4136,4137,4138,4139,4140,4141,4142,4143,4144,4145,4146,4147,4148,4149,4150,4151,4152,4153,4154,4155,4156,4157,4158,4159,4160,4161,4162,4163,4164,4165,4166,4167,4168,4169,4170,4171,4172,4173,4174,4175,4176,4177,4178,4179,4180,4181,4182,4183,4184,4185,4186,4187,4188,4189,4190,4191,4192,4193,4194,4195,4196,4197,4198,4199,4200,4201,4202,4203,4204,4205,4206,4207,4208,4209,4210,4211,4212,4213,4214,4215,4216,4217,4218,4219,4220,4221,4222,4223,4224,4225,4226,4227,4228,4229,4230,4231,4232,4233,4234,4235,4236,4237,4238,4239,4240,4241,4242,4243,4244,4245,4246,4247,4248,4249,4250,4251,4252,4253,4254,4255,4256,4257,4258,4259,4260,4261,4262,4263,4264,4265,4266,4267,4268,4269,4270,4271,4272,4273,4274,4275,4276,4277,4278,4279,4280,4281,4282,4283,4284,4285,4286,4287,4288,4289,4290,4291,4292,4293,4294,4295,4296,4297,4298,4299,4300,4301,4302,4303,4304,4305,4306,4307,4308,4309,4310,4311,4312,4313,4314,4315,4316,4317,4318,4319,4320,4321,4322,4323,4324,4325,4326,4327,4328,4329,4330,4331,4332,4333,4334,4335,4336,4337,4338,4339,4340,4341,4342,4343,4344,4345,4346,4347,4348,4349,4350,4351,4352,4353,4354,4355,4356,4357,4358,4359,4360,4361,4362,4363,4364,4365,4366,4367,4368,4369,4370,4371,4372,4373,4374,4375,4376,4377,4378,4379,4380,4381,4382,4383,4384,4385,4386,4387,4388,4389,4390,4391,4392,4393,4394,4395,4396,4397,4398,4399,4400,4401,4402,4403,4404,4405,4406,4407,4408,4409,4410,4411,4412,4413,4414,4415,4416,4417,4418,4419,4420,4421,4422,4423,4424,4425,4426,4427,4428,4429,4430,4431,4432,4433,4434,4435,4436,4437,4438,4439,4440,4441,4442,4443,4444,4445,4446,4447,4448,4449,4450,4451,4452,4453,4454,4455,4456,4457,4458,4459,4460,4461,4462,4463,4464,4465,4466,4467,4468,4469,4470,4471,4472,4473,4474,4475,4476,4477,4478,4479,4480,4481,4482,4483,4484,4485,4486,4487,4488,4489,4490,4491,4492,4493,4494,4495,4496,4497,4498,4499,4500,4501,4502,4503,4504,4505,4506,4507,4508,4509,4510,4511,4512,4513,4514,4515,4516,4517,4518,4519,4520,4521,4522,4523,4524,4525,4526,4527,4528,4529,4530,4531,4532,4533,4534,4535,4536,4537,4538,4539,4540,4541,4542,4543,4544,4545,4546,4547,4548,4549,4550,4551,4552,4553,4554,4555,4556,4557,4558,4559,4560,4561,4562,4563,4564,4565,4566,4567,4568,4569,4570,4571,4572,4573,4574,4575,4576,4577,4578,4579,4580,4581,4582,4583,4584,4585,4586,4587,4588,4589,4590,4591,4592,4593,4594,4595,4596,4597,4598,4599,4600,4601,4602,4603,4604,4605,4606,4607,4608,4609,4610,4611,4612,4613,4614,4615,4616,4617,4618,4619,4620,4621,4622,4623,4624,4625,4626,4627,4628,4629,4630,4631,4632,4633,4634,4635,4636,4637,4638,4639,4640,4641,4642,4643,4644,4645,4646,4647,4648,4649,4650,4651,4652,4653,4654,4655,4656,4657,4658,4659,4660,4661,4662,4663,4664,4665,4666,4667,4668,4669,4670,4671,4672,4673,4674,4675,4676,4677,4678,4679,4680,4681,4682,4683,4684,4685,4686,4687,4688,4689,4690,4691,4692,4693,4694,4695,4696,4697,4698,4699,4700,4701,4702,4703,4704,4705,4706,4707,4708,4709,4710,4711,4712,4713,4714,4715,4716,4717,4718,4719,4720,4721,4722,4723,4724,4725,4726,4727,4728,4729,4730,4731,4732,4733,4734,4735,4736,4737,4738,4739,4740,4741,4742,4743,4744,4745,4746,4747,4748,4749,4750,4751,4752,4753,4754,4755,4756,4757,4758,4759,4760,4761,4762,4763,4764,4765,4766,4767,4768,4769,4770,4771,4772,4773,4774,4775,4776,4777,4778,4779,4780,4781,4782,4783,4784,4785,4786,4787,4788,4789,4790,4791,4792,4793,4794,4795,4796,4797,4798,4799,4800,4801,4802,4803,4804,4805,4806,4807,4808,4809,4810,4811,4812,4813,4814,4815,4816,4817,4818,4819,4820,4821,4822,4823,4824,4825,4826,4827,4828,4829,4830,4831,4832,4833,4834,4835,4836,4837,4838,4839,4840,4841,4842,4843,4844,4845,4846,4847,4848,4849,4850,4851,4852,4853,4854,4855,4856,4857,4858,4859,4860,4861,4862,4863,4864,4865,4866,4867,4868,4869,4870,4871,4872,4873,4874,4875,4876,4877,4878,4879,4880,4881,4882,4883,4884,4885,4886,4887,4888,4889,4890,4891,4892,4893,4894,4895,4896,4897,4898,4899,4900,4901,4902,4903,4904,4905,4906,4907,4908,4909,4910,4911,4912,4913,4914,4915,4916,4917,4918,4919,4920,4921,4922,4923,4924,4925,4926,4927,4928,4929,4930,4931,4932,4933,4934,4935,4936,4937,4938,4939,4940,4941,4942,4943,4944,4945,4946,4947,4948,4949,4950,4951,4952,4953,4954,4955,4956,4957,4958,4959,4960,4961,4962,4963,4964,4965,4966,4967,4968,4969,4970,4971,4972,4973,4974,4975,4976,4977,4978,4979,4980,4981,4982,4983,4984,4985,4986,4987,4988,4989,4990,4991,4992,4993,4994,4995,4996,4997,4998,4999,5000,5001,5002,5003,5004,5005,5006,5007,5008,5009,5010,5011,5012,5013,5014,5015,5016,5017,5018,5019,5020,5021,5022,5023,5024,5025,5026,5027,5028,5029,5030,5031,5032,5033,5034,5035,5036,5037,5038,5039,5040,5041,5042,5043,5044,5045,5046,5047,5048,5049,5050,5051,5052,5053,5054,5055,5056,5057,5058,5059,5060,5061,5062,5063,5064,5065,5066,5067,5068,5069,5070,5071,5072,5073,5074,5075,5076,5077,5078,5079,5080,5081,5082,5083,5084,5085,5086,5087,5088,5089,5090,5091,5092,5093,5094,5095,5096,5097,5098,5099,5100,5101,5102,5103,5104,5105,5106,5107,5108,5109,5110,5111,5112,5113,5114,5115,5116,5117,5118,5119,5120,5121,5122,5123,5124,5125,5126,5127,5128,5129,5130,5131,5132,5133,5134,5135,5136,5137,5138,5139,5140,5141,5142,5143,5144,5145,5146,5147,5148,5149,5150,5151,5152,5153,5154,5155,5156,5157,5158,5159,5160,5161,5162,5163,5164,5165,5166,5167,5168,5169,5170,5171,5172,5173,5174,5175,5176,5177,5178,5179,5180,5181,5182,5183,5184,5185,5186,5187,5188,5189,5190,5191,5192,5193,5194,5195,5196,5197,5198,5199,5200,5201,5202,5203,5204,5205,5206,5207,5208,5209,5210,5211,5212,5213,5214,5215,5216,5217,5218,5219,5220,5221,5222,5223,5224,5225,5226,5227,5228,5229,5230,5231,5232,5233,5234,5235,5236,5237,5238,5239,5240,5241,5242,5243,5244,5245,5246,5247,5248,5249,5250,5251,5252,5253,5254,5255,5256,5257,5258,5259,5260,5261,5262,5263,5264,5265,5266,5267,5268,5269,5270,5271,5272,5273,5274,5275,5276,5277,5278,5279,5280,5281,5282,5283,5284,5285,5286,5287,5288,5289,5290,5291,5292,5293,5294,5295,5296,5297,5298,5299,5300,5301,5302,5303,5304,5305,5306,5307,5308,5309,5310,5311,5312,5313,5314,5315,5316,5317,5318,5319,5320,5321,5322,5323,5324,5325,5326,5327,5328,5329,5330,5331,5332,5333,5334,5335,5336,5337,5338,5339,5340,5341,5342,5343,5344,5345,5346,5347,5348,5349,5350,5351,5352,5353,5354,5355,5356,5357,5358,5359,5360,5361,5362,5363,5364,5365,5366,5367,5368,5369,5370,5371,5372,5373,5374,5375,5376,5377,5378,5379,5380,5381,5382,5383,5384,5385,5386,5387,5388,5389,5390,5391,5392,5393,5394,5395,5396,5397,5398,5399,5400,5401,5402,5403,5404,5405,5406,5407,5408,5409,5410,5411,5412,5413,5414,5415,5416,5417,5418,5419,5420,5421,5422,5423,5424,5425,5426,5427,5428,5429,5430,5431,5432,5433,5434,5435,5436,5437,5438,5439,5440,5441,5442,5443,5444,5445,5446,5447,5448,5449,5450,5451,5452,5453,5454,5455,5456,5457,5458,5459,5460,5461,5462,5463,5464,5465,5466,5467,5468,5469,5470,5471,5472,5473,5474,5475,5476,5477,5478,5479,5480,5481,5482,5483,5484,5485,5486,5487,5488,5489,5490,5491,5492,5493,5494,5495,5496,5497,5498,5499,5500,5501,5502,5503,5504,5505,5506,5507,5508,5509,5510,5511,5512,5513,5514,5515,5516,5517,5518,5519,5520,5521,5522,5523,5524,5525,5526,5527,5528,5529,5530,5531,5532,5533,5534,5535,5536,5537,5538,5539,5540,5541,5542,5543,5544,5545,5546,5547,5548,5549,5550,5551,5552,5553,5554,5555,5556,5557,5558,5559,5560,5561,5562,5563,5564,5565,5566,5567,5568,5569,5570,5571,5572,5573,5574,5575,5576,5577,5578,5579,5580,5581,5582,5583,5584,5585,5586,5587,5588,5589,5590,5591,5592,5593,5594,5595,5596,5597,5598,5599,5600,5601,5602,5603,5604,5605,5606,5607,5608,5609,5610,5611,5612,5613,5614,5615,5616,5617,5618,5619,5620,5621,5622,5623,5624,5625,5626,5627,5628,5629,5630,5631,5632,5633,5634,5635,5636,5637,5638,5639,5640,5641,5642,5643,5644,5645,5646,5647,5648,5649,5650,5651,5652,5653,5654,5655,5656,5657,5658,5659,5660,5661,5662,5663,5664,5665,5666,5667,5668,5669,5670,5671,5672,5673,5674,5675,5676,5677,5678,5679,5680,5681,5682,5683,5684,5685,5686,5687,5688,5689,5690,5691,5692,5693,5694,5695,5696,5697,5698,5699,5700,5701,5702,5703,5704,5705,5706,5707,5708,5709,5710,5711,5712,5713,5714,5715,5716,5717,5718,5719,5720,5721,5722,5723,5724,5725,5726,5727,5728,5729,5730,5731,5732,5733,5734,5735,5736,5737,5738,5739,5740,5741,5742,5743,5744,5745,5746,5747,5748,5749,5750,5751,5752,5753,5754,5755,5756,5757,5758,5759,5760,5761,5762,5763,5764,5765,5766,5767,5768,5769,5770,5771,5772,5773,5774,5775,5776,5777,5778,5779,5780,5781,5782,5783,5784,5785,5786,5787,5788,5789,5790,5791,5792,5793,5794,5795,5796,5797,5798,5799,5800,5801,5802,5803,5804,5805,5806,5807,5808,5809,5810,5811,5812,5813,5814,5815,5816,5817,5818,5819,5820,5821,5822,5823,5824,5825,5826,5827,5828,5829,5830,5831,5832,5833,5834,5835,5836,5837,5838,5839,5840,5841,5842,5843,5844,5845,5846,5847,5848,5849,5850,5851,5852,5853,5854,5855,5856,5857,5858,5859,5860,5861,5862,5863,5864,5865,5866,5867,5868,5869,5870,5871,5872,5873,5874,5875,5876,5877,5878,5879,5880,5881,5882,5883,5884,5885,5886,5887,5888,5889,5890,5891,5892,5893,5894,5895,5896,5897,5898,5899,5900,5901,5902,5903,5904,5905,5906,5907,5908,5909,5910,5911,5912,5913,5914,5915,5916,5917,5918,5919,5920,5921,5922,5923,5924,5925,5926,5927,5928,5929,5930,5931,5932,5933,5934,5935,5936,5937,5938,5939,5940,5941,5942,5943,5944,5945,5946,5947,5948,5949,5950,5951,5952,5953,5954,5955,5956,5957,5958,5959,5960,5961,5962,5963,5964,5965,5966,5967,5968,5969,5970,5971,5972,5973,5974,5975,5976,5977,5978,5979,5980,5981,5982,5983,5984,5985,5986,5987,5988,5989,5990,5991,5992,5993,5994,5995,5996,5997,5998,5999,6000,6001,6002,6003,6004,6005,6006,6007,6008,6009,6010,6011,6012,6013,6014,6015,6016,6017,6018,6019,6020,6021,6022,6023,6024,6025,6026,6027,6028,6029,6030,6031,6032,6033,6034,6035,6036,6037,6038,6039,6040,6041,6042,6043,6044,6045,6046,6047,6048,6049,6050,6051,6052,6053,6054,6055,6056,6057,6058,6059,6060,6061,6062,6063,6064,6065,6066,6067,6068,6069,6070,6071,6072,6073,6074,6075,6076,6077,6078,6079,6080,6081,6082,6083,6084,6085,6086,6087,6088,6089,6090,6091,6092,6093,6094,6095,6096,6097,6098,6099,6100,6101,6102,6103,6104,6105,6106,6107,6108,6109,6110,6111,6112,6113,6114,6115,6116,6117,6118,6119,6120,6121,6122,6123,6124,6125,6126,6127,6128,6129,6130,6131,6132,6133,6134,6135,6136,6137,6138,6139,6140,6141,6142,6143,6144,6145,6146,6147,6148,6149,6150,6151,6152,6153,6154,6155,6156,6157,6158,6159,6160,6161,6162,6163,6164,6165,6166,6167,6168,6169,6170,6171,6172,6173,6174,6175,6176,6177,6178,6179,6180,6181,6182,6183,6184,6185,6186,6187,6188,6189,6190,6191,6192,6193,6194,6195,6196,6197,6198,6199,6200,6201,6202,6203,6204,6205,6206,6207,6208,6209,6210,6211,6212,6213,6214,6215,6216,6217,6218,6219,6220,6221,6222,6223,6224,6225,6226,6227,6228,6229,6230,6231,6232,6233,6234,6235,6236,6237,6238,6239,6240,6241,6242,6243,6244,6245,6246,6247,6248,6249,6250,6251,6252,6253,6254,6255,6256,6257,6258,6259,6260,6261,6262,6263,6264,6265,6266,6267,6268,6269,6270,6271,6272,6273,6274,6275,6276,6277,6278,6279,6280,6281,6282,6283,6284,6285,6286,6287,6288,6289,6290,6291,6292,6293,6294,6295,6296,6297,6298,6299,6300,6301,6302,6303,6304,6305,6306,6307,6308,6309,6310,6311,6312,6313,6314,6315,6316,6317,6318,6319,6320,6321,6322,6323,6324,6325,6326,6327,6328,6329,6330,6331,6332,6333,6334,6335,6336,6337,6338,6339,6340,6341,6342,6343,6344,6345,6346,6347,6348,6349,6350,6351,6352,6353,6354,6355,6356,6357,6358,6359,6360,6361,6362,6363,6364,6365,6366,6367,6368,6369,6370,6371,6372,6373,6374,6375,6376,6377,6378,6379,6380,6381,6382,6383,6384,6385,6386,6387,6388,6389,6390,6391,6392,6393,6394,6395,6396,6397,6398,6399,6400,6401,6402,6403,6404,6405,6406,6407,6408,6409,6410,6411,6412,6413,6414,6415,6416,6417,6418,6419,6420,6421,6422,6423,6424,6425,6426,6427,6428,6429,6430,6431,6432,6433,6434,6435,6436,6437,6438,6439,6440,6441,6442,6443,6444,6445,6446,6447,6448,6449,6450,6451,6452,6453,6454,6455,6456,6457,6458,6459,6460,6461,6462,6463,6464,6465,6466,6467,6468,6469,6470,6471,6472,6473,6474,6475,6476,6477,6478,6479,6480,6481,6482,6483,6484,6485,6486,6487,6488,6489,6490,6491,6492,6493,6494,6495,6496,6497,6498,6499,6500,6501,6502,6503,6504,6505,6506,6507,6508,6509,6510,6511,6512,6513,6514,6515,6516,6517,6518,6519,6520,6521,6522,6523,6524,6525,6526,6527,6528,6529,6530,6531,6532,6533,6534,6535,6536,6537,6538,6539,6540,6541,6542,6543,6544,6545,6546,6547,6548,6549,6550,6551,6552,6553,6554,6555,6556,6557,6558,6559,6560,6561,6562,6563,6564,6565,6566,6567,6568,6569,6570,6571,6572,6573,6574,6575,6576,6577,6578,6579,6580,6581,6582,6583,6584,6585,6586,6587,6588,6589,6590,6591,6592,6593,6594,6595,6596,6597,6598,6599,6600,6601,6602,6603,6604,6605,6606,6607,6608,6609,6610,6611,6612,6613,6614,6615,6616,6617,6618,6619,6620,6621,6622,6623,6624,6625,6626,6627,6628,6629,6630,6631,6632,6633,6634,6635,6636,6637,6638,6639,6640,6641,6642,6643,6644,6645,6646,6647,6648,6649,6650,6651,6652,6653,6654,6655,6656,6657,6658,6659,6660,6661,6662,6663,6664,6665,6666,6667,6668,6669,6670,6671,6672,6673,6674,6675,6676,6677,6678,6679,6680,6681,6682,6683,6684,6685,6686,6687,6688,6689,6690,6691,6692,6693,6694,6695,6696,6697,6698,6699,6700,6701,6702,6703,6704,6705,6706,6707,6708,6709,6710,6711,6712,6713,6714,6715,6716,6717,6718,6719,6720,6721,6722,6723,6724,6725,6726,6727,6728,6729,6730,6731,6732,6733,6734,6735,6736,6737,6738,6739,6740,6741,6742,6743,6744,6745,6746,6747,6748,6749,6750,6751,6752,6753,6754,6755,6756,6757,6758,6759,6760,6761,6762,6763,6764,6765,6766,6767,6768,6769,6770,6771,6772,6773,6774,6775,6776,6777,6778,6779,6780,6781,6782,6783,6784,6785,6786,6787,6788,6789,6790,6791,6792,6793,6794,6795,6796,6797,6798,6799,6800,6801,6802,6803,6804,6805,6806,6807,6808,6809,6810,6811,6812,6813,6814,6815,6816,6817,6818,6819,6820,6821,6822,6823,6824,6825,6826,6827,6828,6829,6830,6831,6832,6833,6834,6835,6836,6837,6838,6839,6840,6841,6842,6843,6844,6845,6846,6847,6848,6849,6850,6851,6852,6853,6854,6855,6856,6857,6858,6859,6860,6861,6862,6863,6864,6865,6866,6867,6868,6869,6870,6871,6872,6873,6874,6875,6876,6877,6878,6879,6880,6881,6882,6883,6884,6885,6886,6887,6888,6889,6890,6891,6892,6893,6894,6895,6896,6897,6898,6899,6900,6901,6902,6903,6904,6905,6906,6907,6908,6909,6910,6911,6912,6913,6914,6915,6916,6917,6918,6919,6920,6921,6922,6923,6924,6925,6926,6927,6928,6929,6930,6931,6932,6933,6934,6935,6936,6937,6938,6939,6940,6941,6942,6943,6944,6945,6946,6947,6948,6949,6950,6951,6952,6953,6954,6955,6956,6957,6958,6959,6960,6961,6962,6963,6964,6965,6966,6967,6968,6969,6970,6971,6972,6973,6974,6975,6976,6977,6978,6979,6980,6981,6982,6983,6984,6985,6986,6987,6988,6989,6990,6991,6992,6993,6994,6995,6996,6997,6998,6999,7000,7001,7002,7003,7004,7005,7006,7007,7008,7009,7010,7011,7012,7013,7014,7015,7016,7017,7018,7019,7020,7021,7022,7023,7024,7025,7026,7027,7028,7029,7030,7031,7032,7033,7034,7035,7036,7037,7038,7039,7040,7041,7042,7043,7044,7045,7046,7047,7048,7049,7050,7051,7052,7053,7054,7055,7056,7057,7058,7059,7060,7061,7062,7063,7064,7065,7066,7067,7068,7069,7070,7071,7072,7073,7074,7075,7076,7077,7078,7079,7080,7081,7082,7083,7084,7085,7086,7087,7088,7089,7090,7091,7092,7093,7094,7095,7096,7097,7098,7099,7100,7101,7102,7103,7104,7105,7106,7107,7108,7109,7110,7111,7112,7113,7114,7115,7116,7117,7118,7119,7120,7121,7122,7123,7124,7125,7126,7127,7128,7129,7130,7131,7132,7133,7134,7135,7136,7137,7138,7139,7140,7141,7142,7143,7144,7145,7146,7147,7148,7149,7150,7151,7152,7153,7154,7155,7156,7157,7158,7159,7160,7161,7162,7163,7164,7165,7166,7167,7168,7169,7170,7171,7172,7173,7174,7175,7176,7177,7178,7179,7180,7181,7182,7183,7184,7185,7186,7187,7188,7189,7190,7191,7192,7193,7194,7195,7196,7197,7198,7199,7200,7201,7202,7203,7204,7205,7206,7207,7208,7209,7210,7211,7212,7213,7214,7215,7216,7217,7218,7219,7220,7221,7222,7223,7224,7225,7226,7227,7228,7229,7230,7231,7232,7233,7234,7235,7236,7237,7238,7239,7240,7241,7242,7243,7244,7245,7246,7247,7248,7249,7250,7251,7252,7253,7254,7255,7256,7257,7258,7259,7260,7261,7262,7263,7264,7265,7266,7267,7268,7269,7270,7271,7272,7273,7274,7275,7276,7277,7278,7279,7280,7281,7282,7283,7284,7285,7286,7287,7288,7289,7290,7291,7292,7293,7294,7295,7296,7297,7298,7299,7300,7301,7302,7303,7304,7305,7306,7307,7308,7309,7310,7311,7312,7313,7314,7315,7316,7317,7318,7319,7320,7321,7322,7323,7324,7325,7326,7327,7328,7329,7330,7331,7332,7333,7334,7335,7336,7337,7338,7339,7340,7341,7342,7343,7344,7345,7346,7347,7348,7349,7350,7351,7352,7353,7354,7355,7356,7357,7358,7359,7360,7361,7362,7363,7364,7365,7366,7367,7368,7369,7370,7371,7372,7373,7374,7375,7376,7377,7378,7379,7380,7381,7382,7383,7384,7385,7386,7387,7388,7389,7390,7391,7392,7393,7394,7395,7396,7397,7398,7399,7400,7401,7402,7403,7404,7405,7406,7407,7408,7409,7410,7411,7412,7413,7414,7415,7416,7417,7418,7419,7420,7421,7422,7423,7424,7425,7426,7427,7428,7429,7430,7431,7432,7433,7434,7435,7436,7437,7438,7439,7440,7441,7442,7443,7444,7445,7446,7447,7448,7449,7450,7451,7452,7453,7454,7455,7456,7457,7458,7459,7460,7461,7462,7463,7464,7465,7466,7467,7468,7469,7470,7471,7472,7473,7474,7475,7476,7477,7478,7479,7480,7481,7482,7483,7484,7485,7486,7487,7488,7489,7490,7491,7492,7493,7494,7495,7496,7497,7498,7499,7500,7501,7502,7503,7504,7505,7506,7507,7508,7509,7510,7511,7512,7513,7514,7515,7516,7517,7518,7519,7520,7521,7522,7523,7524,7525,7526,7527,7528,7529,7530,7531,7532,7533,7534,7535,7536,7537,7538,7539,7540,7541,7542,7543,7544,7545,7546,7547,7548,7549,7550,7551,7552,7553,7554,7555,7556,7557,7558,7559,7560,7561,7562,7563,7564,7565,7566,7567,7568,7569,7570,7571,7572,7573,7574,7575,7576,7577,7578,7579,7580,7581,7582,7583,7584,7585,7586,7587,7588,7589,7590,7591,7592,7593,7594,7595,7596,7597
0,-16051.799778521086,8433.169413037871,802.1308480388639,-1752.3276804971972,731.167015041317,-1633.8788867878484,-3806.223357837148,1391.3688341589575,8645.561727950615,-7626.368011578021,-8181.0868208439115,10004.072023395152,5259.938987797737,-5379.821132593134,-689.6973630199569,751.1965952619622,1329.7833772545991,1669.6232740834823,-983.3142796862475,2963.226554697868,-3096.7256112335076,109.24786919813799,1186.938272292198,-1960.008139441276,-320.57118175863326,127.19042123997475,-135.43003059712214,-402.9033962389321,-1521.8017085637175,573.3038028281171,2333.1139612979696,-2678.6638102971206,1731.0720224673332,-4671.204765189089,4711.485861886859,1737.4109322618606,-2594.755914993619,1557.7623071148275,-2480.774949049925,3698.6759645804245,-2109.2776805559943,2953.4559012058953,-2675.586378106616,396.7092865435371,-2174.154065545859,3485.5729054421477,1121.4167155355356,532.6822264495419,-4322.3858136915715,3318.7186808930333,661.3211395467308,-1228.6371490019164,2824.0024229965247,-849.3526671155597,-1365.5310746455289,2966.546695703285,589.3187629395795,-2596.0510629478977,-229.01782541271538,-241.4194869108724,4178.313455303859,1668.6275509695165,762.9110848119016,298.62447369763146,292.93020465958676,-3080.5163474963942,898.5015228532451,-73.64905735105873,-83.10200094014363,-121.28259673810037,2931.260873790301,-1475.788496222734,655.9776269956408,-1999.9440019746578,333.3887656531547,-1483.1856442497779,2266.9226380124296,-3201.802923826157,445.5277783774816,-1367.7936707048448,1414.1610826073252,2735.7445604020577,-2828.205774179282,2407.736433024075,-1269.3848892576418,-974.4510951375116,-3585.3431911452367,4199.263140583289,1376.1570295708377,-441.86218147176095,525.231174978358,1702.1036859202459,-3484.5268301053666,1138.536444946843,190.82083706568147,-3360.238632117621,218.99778741628054,-1068.1396051555143,261.8811406294291,-423.7359873431225,986.4281264588586,-2173.150339028046,1308.093499482515,609.5228627986086,-1063.422949873921,966.7970904181939,-1338.0634964138405,1053.9040447086763,3090.7476127342834,-2685.966881238531,2500.533949577858,-748.9190115171533,-1125.9976480610621,1328.4912769212956,-1806.9301636135701,1307.3161909301261,-17.78844332865032,106.04529915840591,-895.1083471437156,-1979.971966056578,13.212926989299977,-18.35087592418725,1771.0743696548714,-3040.373090568742,950.4397390849349,2787.8799028655735,-2492.0963223413505,-472.6558258536334,482.09873804969595,-3400.228022035561,336.6388458564403,863.7666786299988,-1048.209387336168,2550.513033029195,-2329.3620747082764,-2944.681228342903,-19.016849121261767,1944.7188214872208,-2196.657098279172,-3790.5684963813096,1459.7932211694508,4106.072966186953,-700.6559737552241,-2498.727892068201,-1081.5395613202877,2799.813559918386,-3140.292795257543,604.5880409329117,-1301.5782064237899,1520.4142117950414,-902.357474530444,-3008.231475888806,3473.657674510019,-1873.6804145908566,138.47604990334773,2148.2235099069894,277.0415983468271,-2551.398480747142,107.55718067057929,2332.8556356808517,-3799.727272465536,1517.0552157396187,2452.0375675288583,-4650.946947396758,2730.052570198685,1286.6022036316201,-1501.2779712055333,-1020.4978219874346,1339.378625169141,1066.3571997128886,182.2047430303605,-1077.2001206913963,-20.586872629685132,262.13939429099423,-473.4607391388829,-906.2449055374266,2259.120763188715,-2738.089786178755,461.9529553061005,2146.6139555634254,-127.52604213739527,-2324.408427744774,2044.5236689335015,70.79999082632737,-2699.908819964902,2766.1201750870478,3621.0971991645038,-6223.227357114835,3348.48452080997,-1673.6377527372126,2303.235492338159,-18.32680936263281,56.269757821020214,1178.9328785712705,-1818.0142583125667,-2012.6379785877925,354.27600831337617,58.95497265044167,-643.1648474246133,161.10602505814842,11.777111728760756,2045.3237837167999,-861.5282752185137,1874.115825454176,-979.110914173895,664.2277346465729,-2766.059560773792,2031.8842001576982,-1050.5362467881723,1270.507734507635,-1009.3641639323815,1577.0676574983188,4727.361773573975,-4543.487649485696,863.3356961463833,99.1338937392621,-687.8665362524494,3159.3491153764144,-2800.105241805059,800.0182855894018,2240.0205000085825,-1770.6836869114693,-3521.365997057347,3319.3357018332235,1818.28462882841,-73.9657113867738,-1167.6044649384487,2102.270436354569,400.52598883749675,-857.3708319660568,-687.7993698911849,2112.5359062261186,3721.149937663389,-4156.46307395713,2613.5147051516465,-2598.9961817404374,2301.462612090509,-733.7143776712101,-1074.882660292652,-1558.4462402597555,1881.2383035625608,893.4737290110179,219.02919383803012,1820.0160161906915,475.973549506007,-1272.7297628020501,-84.2936125350208,2267.2760681343952,-2666.0484495270102,1792.676597317137,649.702610019459,905.2512656774696,-2493.401686613666,1245.549595019863,-1371.8847610013931,1685.26784770477,721.8375246431294,-767.7204500209633,-467.18575553693097,-768.1400317808001,-630.7756845324104,1916.6707826876584,794.8067789960435,-78.09831128106474,-1011.5514949888508,-1712.8326610144225,-983.0569772939646,3631.615097968796,-3085.886231907474,686.0507171763751,6082.595025833626,-3372.5863030503383,-1456.0796330010094,1795.6933840107504,-1604.151430632423,1358.0238084624557,1317.9957381843374,773.7548845424441,-397.6649201254179,-300.2317801656235,574.9036399779776,-2493.3715055942434,1236.640681590029,-558.9883523775035,-1798.6078352695686,2760.542406824703,-610.5008541899742,1807.3762250909244,-1042.3461933035956,-1686.5307589772503,668.0858893029531,3233.7862126635696,-2100.7654564182794,-1500.468123671711,-952.4297848247667,1696.339127558614,-1488.975921531193,896.0156056395167,291.68382849550835,-1613.1412155588828,3966.6013325697772,-606.257465971446,-997.8087391573496,-327.5000019570923,-125.34801755872512,2049.7933953359075,-1248.4402079080328,520.2359774234901,-297.8021969502043,-2187.948102505363,303.7778650506834,-610.667088863785,3335.3007210691635,-2782.2164559841212,610.248720994755,204.1783919493929,1084.0726529075282,443.2201274314427,-1677.4082336919132,79.2319148289835,1909.0524350381127,890.4600653088958,-462.4013211414741,-1153.9114022678766,-469.4595493263012,29.561843674374213,1786.1255205423984,-3045.657695693936,1421.2479465234198,2772.3846686695492,-420.0409934207222,-156.58118383512937,-754.2772781638226,-1711.6023805883387,2181.9665698577483,123.93096547300574,2493.9723145076373,2131.320155219121,-2865.905879115264,-333.7732211380776,1260.3171249615912,-247.16569767640692,570.5037378474873,-970.733175913318,-1493.5680134190036,668.8437274874129,-1284.3362226497472,1194.6824827127043,-814.570390733583,-89.96906067637858,1960.4751745027806,49.97231330891749,-850.6236740488027,1834.1834414545272,-680.9349381651948,-1930.0100240017084,884.7073844843803,2339.254480089004,-3304.440454509057,-1510.6129031767798,4890.227825422968,-667.9673946427981,-1439.077502088884,1818.247838597093,182.461067439501,120.57917866345484,-1827.026846167784,704.4692185521194,-692.6705745985757,-2149.1328276196214,1396.0457503598786,-1904.9649803867435,-1060.966431535571,2957.859834619069,-228.50432491245755,484.1503495821624,-856.8571509416557,-1007.1760129437226,2177.510452871248,-2247.1693939952897,2768.6920308474323,-1088.0711432499354,-3419.9728771438863,1790.394608945002,4276.482779313121,-1314.9858819585818,-438.4943516440365,429.2336196163112,-3992.479728149311,1908.8340707690525,937.2128679772451,-1272.4424803604352,-59.912881206721174,-2837.440637251508,902.7431883412532,3343.6407939599076,-1513.698861489778,-1800.3016033811464,1962.4204440530712,-680.8239452957873,-527.3923856710505,999.5295640386845,536.694006596015,-1890.134301370248,1672.7720887199048,-157.17433388226172,-1915.5321864416462,2921.136078761943,-981.2324873155591,-2376.2492583263393,3855.090791895648,-416.5922033930708,-2479.6665990939423,2690.765924604081,1322.1302455711775,664.7217088053914,-2476.2591900631814,-182.72675768271787,3080.986441678363,-1656.044731185456,1262.304014620463,-321.8956429828769,156.7701552855613,843.8534420156758,-959.8374244078749,193.96069961334092,480.3937832184705,1953.28264730922,792.7815346811617,-3324.1431606594774,2749.7686591876754,1077.9528336123997,-2207.321067686685,2119.2871372949235,381.7787786308019,-672.8437066745038,888.5496570052833,-1881.5772776744582,730.0122716609133,24.29476365444054,469.409072899612,-1455.8573290076258,1120.0141020283306,-1877.0954617866557,2448.9753109510198,-1276.1373187340184,2756.542174435558,-2460.7915754071955,-202.61157552076094,210.85045585394,2451.531040453706,-2134.585259355741,-261.3414342206912,864.7434291770041,-2486.7467920832846,2802.965055653648,1162.4082596975009,-618.1263657198565,-742.5310032814488,1251.6244797666407,859.5066736597383,296.501229503866,-572.3258210857017,1526.3573480716075,767.8625261823993,-936.105537343683,15.205286715819657,-1872.0016225819768,-370.05601554860414,277.1823987919055,196.41616292908185,1295.9081403407822,-2098.9670419578592,1347.5739724188409,-1474.893743787657,1085.0484678735424,1357.4480457395255,-2487.691495170002,-1925.0237608528334,1054.928072986593,1510.1407062765054,-1444.9528021363146,1658.79278423573,-705.5572980899066,1783.3578920388345,-3719.7245972859687,4242.6141111408,-3070.9551047367418,87.16377936801895,229.41301116461125,314.3512130846947,-1753.4159072253942,2674.0040016190524,-1558.7246215892453,-332.95421204376964,349.3963673973537,1887.6622411488952,-2044.8498365819594,-503.6826399262107,-2161.6466027491097,4929.35784474338,-1757.418775916819,-2188.095220492169,685.9725422613157,2007.2404956862288,655.0399363904505,-1820.6708772957918,-297.6284021554559,1042.1978776564956,981.4270568317215,-4488.757026710605,1439.5050569848163,-242.74942682003424,3196.9768543192854,285.3089957475328,-250.86627353852805,-2546.6446080513683,1170.4228715882384,-757.5333683143082,-1262.6603209292823,1503.83856687386,393.90008325516067,356.99647108709496,-238.05334524370062,-1670.495099430952,-1342.672991776682,-695.604826882765,430.6367595169101,2878.971221084046,-2559.546870040712,-695.8542394250597,1487.3644482663765,2448.011684800903,-899.582852277585,-454.29933446420046,47.537462420062,1979.4846282903525,-110.83710832768931,2456.4384493663947,-1640.4994892253796,-83.18926202275601,1438.744370314338,123.10788364878532,323.0744242277969,-382.1229625709717,-239.52739724981868,-779.8992049901786,-1565.4531486766675,900.3785183027468,2407.863214746695,-17.222178649485432,-973.5039432791194,2269.288678551773,-1050.269180387447,-3163.4682056111733,4382.288734313863,-23.145652120133473,-975.5925053451869,-1119.9126855629165,1543.7695501624826,-1237.8130427314647,-342.0492710719889,205.57867518068997,1742.489800907664,-3145.421133149627,2420.54441935307,-1230.1770273924112,-280.06906856376713,-894.6894315895784,805.4952459852232,-188.59981604465563,-413.57256276162616,-4066.896958704855,1546.7365116523144,997.3917199439518,-1614.8814254025792,1690.7955435228293,-1776.3041832269935,13.5146357677356,2780.817763677965,-754.9279881229677,1711.0221028078483,-295.7532311847465,-2075.338587922548,2338.4518394087095,-1249.2640124834807,-668.2351172014219,473.4201970303031,-587.1408566683325,981.3144278383356,-309.20978890299904,1182.8610502463448,-2921.5714102518164,515.9896865906126,2558.8660033918295,-110.77554619827933,-3606.9086451618823,824.3258436611343,-684.8049653047301,-1186.7313858243504,2259.5319218618206,-1465.930568450888,-2335.638764005472,2440.4953991768934,1695.1750439309312,-1352.2387613731692,-1772.6286728638768,551.8311194339183,1079.1789982822481,1243.793965373123,-4925.491962133506,7399.241507338833,-3697.9382267932906,233.2602675265899,-554.9149229002549,-2316.7692323495394,1788.6210935312013,-338.62224633176817,-1319.3136423627261,-502.61686999955026,2797.5542503958654,-499.39263484908645,449.7338788358348,-1112.2230718486762,643.1464934954821,1107.3394861115905,-2322.725636020658,1743.2811763425361,-914.5449773668543,1402.8256523001055,-1167.7439393994787,1139.1220864811062,98.52402598748051,338.37543350300456,-211.93581789202196,-537.5792281295048,110.82474556283623,-482.06991189275874,-1158.5652514183073,-307.16434763969676,1360.3406297771883,-785.5947150714196,-2618.282005697321,1756.7526116386487,-432.0898131379404,505.56150521619816,545.903424496607,74.28347179879472,-514.871902914891,-298.31574578484816,-330.4898332638334,-294.16725946426254,1025.0093046231432,-3010.6374915174674,1926.920015166023,-2716.732237549534,849.8737068665614,2123.9786571072354,-2028.5490310400107,-1115.2428980023117,2930.0774451071793,-2551.9485252386075,2311.7345809763983,680.3558054110664,-1308.8052508809783,-992.0204269859456,1124.2062088311543,-96.36913970769616,3159.744037683219,-3701.3239606333464,1134.708293008638,4877.587753493482,-7073.2018800990845,4709.8692548920835,-1909.9151261970646,1417.6011365694278,-1111.4323198821992,841.734961863989,932.1480688403752,-905.2702100709602,5591.0188878105955,-2950.8030229103547,-2078.91642544456,3520.7650895917036,-1684.324588566747,-1910.20712051472,1264.2005635087721,-439.20214761373785,1216.6975461585264,-493.13477195950526,651.971301902708,-2280.867852747186,2284.2076522896723,656.0768776475903,-945.9696226972918,2004.6883480228673,-3492.382860045032,-328.6377026750172,-1106.936599256462,2579.749923800469,-2315.876293639268,4616.714425257586,-2103.2774182538856,901.0704098040313,-1881.1774195084656,-511.5859624074642,-195.5543540150444,2328.328278606748,550.9408256342426,-3296.7209999424394,2684.383300719458,-2457.5052332540295,-231.69480993135204,-2395.493140608006,-150.5376488166904,1550.0013765288825,1794.491212385717,794.7325073545304,-1401.2422204233415,3249.096663158293,-1930.428229208566,-5173.697405623756,2207.1797256134537,885.3773649755439,-2211.1540748676916,142.66602918025328,2826.8750048342426,-813.660138786639,-194.6236713971063,-1194.503426290886,-2011.9539176625858,1327.2152653281998,-730.4134824629743,711.7743295031205,-4441.761201224806,3967.7299243153957,1724.3976892506596,-118.19736824743842,1052.0478889792619,-539.1736570837201,-352.78812803076454,1098.0224341074554,-1634.0638345917512,2924.3536636932695,-1768.5222036560895,-1363.3024765783862,4221.077400710218,-2202.7147125654315,-2494.085695420803,2800.074015351158,-1715.3733597295598,2810.554911552346,-1014.2075560816648,-2466.267564533691,1683.6824694817676,2363.26448166482,-3823.421496338812,2298.9841149064705,337.91903109607006,2451.6676581198444,-1534.2928042209387,-227.7464332501857,2026.3440243481973,-3146.6349498066397,1361.6114067574354,-1000.6156171164116,2385.9744797048397,-3724.2775117327233,1693.099392316725,-1219.038557667405,-468.4115987475932,-344.24572029256075,366.0399964866814,-2673.4627684455695,2780.6829686531364,1962.6302433029218,-1766.3703356317328,2889.2588584559485,-308.5293368496113,-1506.799445654994,225.61816165361972,-1062.1690659468536,2759.624535038724,-731.1453966262852,-3049.8188185141066,2724.8385649716574,232.20877750704548,-1620.9356189510406,994.4333588466809,-3995.8041632792338,3669.663560051358,3098.45177455669,-5501.330843948934,4080.4034325219604,796.8938949149494,1404.2571677478925,-1785.556287729849,1138.2097352918904,-358.29063641854816,-635.0585207481961,-770.6877001567938,-291.1528497783269,2779.308893731085,-606.02260546017,-831.2617478008964,476.19254232468637,-1.3535302618444438,882.2773101159979,-1358.7914438822252,1621.761844241022,-1817.782430771494,855.4357794703053,-1134.635396956643,583.9829957215753,-2182.0574365292337,817.3920815661608,565.8038799411128,-2005.2225763315676,1473.7067021771454,-186.31446894340647,-5153.495299932416,1276.2787421402224,3502.61557967272,-611.098962098993,998.3365005618839,1211.1824315908855,-147.70005764624352,-3057.205436887824,-1054.7673673963657,1257.2395144808916,1831.1753978122847,-5001.181776603213,5019.2194545879975,583.7157281510713,-206.71877427364672,-4026.5436779641623,1186.636992356686,389.31449389944805,-1561.7760749305698,1889.3641300731056,465.95220780859063,-1913.157195673657,1608.24411694572,-1649.4647426710321,-1244.6051240688164,937.3008862243391,1049.7266968123665,-2105.9738425051537,-143.14208608563763,-573.6721954965817,2366.437781075698,1554.7861121043318,552.1409517406363,-2885.978385822479,-46.06752249344876,3541.026523722109,-2496.412201841484,-1955.401261793756,-1117.8666582301603,-345.48242893484377,2184.0896719339567,-1365.1015634617327,770.0510585218254,-4476.298060958646,1895.1295439999312,4864.481695572195,-407.89707147747146,-2152.9912551641974,1741.7486546374982,767.5263873823891,-2851.7456471722926,-202.03975740054773,756.188656428645,-1783.1399063921253,1918.3250364021824,2522.6776690330603,-345.3845678573175,-2659.8974395770965,1421.516354595318,-304.04462113699424,-2357.8337346419607,3383.2184290699092,-1436.4842592175646,-2076.611501146998,-572.0754735799114,2629.024288545901,-2018.8307431558126,2038.4933185282355,-489.3038449781102,2641.6978589525756,-3036.18023501886,654.3113596797826,-271.0425887266719,654.8881517306836,1094.884640325284,-412.0598415450851,646.6814851430344,-2282.3476610811254,-1544.0021908063652,4205.131498531826,-1775.9174438736734,2027.2001613900916,-664.9911190304643,146.1493957181641,-1033.3346342207776,499.959878223924,-1117.603150202433,3735.7433387524593,-1668.350692417988,-555.6540930772009,824.3027681863672,1333.597707714554,-2327.74094065695,-1612.0768269629127,4485.97655994671,-1349.2733432270302,-1378.6720731568273,-847.1403948691409,2034.820726326825,-3079.9056456143094,3293.681185346893,-1404.057386540735,-293.03162356250374,720.1670391845241,-3322.711699244863,2033.278465209744,862.4664374771435,-2059.912077156152,2907.8313401476516,172.98093139888476,2142.074101216275,-3497.9950055715226,1945.5895272519806,-3562.2176262633757,1338.0106815858671,2492.9144146881063,-2325.141570345356,571.5810016778888,-1088.1013697652934,2231.309388015871,-3916.5553314686344,452.71681524357075,-334.4037556337293,328.6252018702435,2756.8337420677294,-2685.3334138247847,1850.8236327355169,-1635.5106096290176,841.8661852206683,-427.9956480813404,2974.0936676438646,-2460.9754875450208,-2999.7876772407417,-307.4162685259535,-30.154871095174904,2256.3975345986364,-479.9509405175128,1437.7884990300902,-671.0089519656967,540.6462645828201,-290.3728150906341,640.5700167851822,-2548.2885445771817,2142.224140282176,-2074.897952105116,-209.11696275028265,22.952692623622717,1447.3896711833652,-798.4500119342636,1686.8940265805563,1431.1613211145104,-1287.1737988391544,-302.9968489504535,3357.2783041190773,-3687.6329472943416,1280.9332220960612,296.9852902874937,-3109.3452753739243,-616.3875801028153,5521.331984648032,-4699.672812921287,2894.8854766868612,-1858.228212623205,327.3834797788904,-162.7459163563408,-839.5827664788712,2378.7003390590435,-1430.7546908500692,703.494105003578,1012.4734950720542,-1737.4937966225825,158.77686044181755,-1021.3942608986122,3157.089340225584,86.37853568439421,951.5624869066165,-1690.0294319092543,-1674.17968626292,2661.4150638435244,-911.6440823389024,503.3604353984644,-944.3024321726327,-1139.7989358618404,-195.93486334252557,1044.7433867781072,627.9187304031763,414.180562389095,2123.624896143157,-2810.5310127165385,106.09909298764946,1918.6624714949464,-3919.079211041552,2668.422287629603,-318.35445835918387,-1464.8764496808462,1392.1576074751854,1373.1459727671972,-3103.466674511237,1226.9954429051943,-702.9140777745865,4061.618300582564,-5175.996057379201,1950.2402541163633,756.6799233151677,496.83775107285413,-881.6697740402343,1585.6900739839487,-186.74039746724415,-1774.097168682741,395.16313905453774,2309.2946683843006,-315.2657033624715,-578.1968550555582,420.0334893170056,-712.1267604787139,810.0832080370753,-757.7692986196462,1404.646928712,-4100.643536208747,3114.7501332038337,1263.298035649927,948.821834280157,-381.5195346597256,-583.0715007596797,487.9142804960525,-2111.8003326810376,299.8304465178911,3607.029599064795,-1354.71848360324,-2739.9663887979896,3410.82555436473,-1786.448957407405,2433.903171269172,-1120.8601590168066,-1114.2660595151317,901.5282457844129,3105.8828754810243,-224.4586621349553,436.01462045890133,-919.2436254588392,706.6834584176005,-2023.1103388674924,2256.5889525450166,-814.3852923088958,-221.54355576580448,4360.188380887496,-3679.2864777797486,754.0236721279745,1548.2788377308104,-1444.1367286726145,1782.031933052107,2920.898822404184,-2996.5203023494937,3009.1943789269485,1476.022581064922,113.61022457476643,2403.217873059238,-4154.674931624882,1368.3280596148572,2281.910661311383,-509.0307729652319,-1335.5350364422397,3774.294041689323,-1983.766246996564,-2834.7127893390743,2098.6712207574355,-39.570765521140345,862.6527343619086,-1433.6754414510058,-107.79440083138826,-449.97013014629715,-805.1706767710665,1238.7428971727782,-1511.6472444420974,3182.962590563228,-254.66004662858452,-1732.065010242022,584.1048227014435,1680.2312057779977,-3424.926604801635,1940.5677372144955,2326.9501606000827,-945.5422016573652,34.35923205273637,-1190.0759469294908,1406.1025785828697,-2028.894723370451,3167.860441412855,-4106.531941165086,830.6829407900013,-54.78425404172114,4694.957733038615,-4036.671645150642,1794.5714488856788,3617.601105639906,-1458.1114650803754,1199.5910122457665,-1780.284991589662,-2340.9390050142324,1947.959504509145,95.55617124447828,1564.2735714652943,-4806.879969850431,2376.331272765428,1989.4618962298032,52.46823318803712,-2443.4412628711925,363.2660790752567,1135.4634031114188,1189.2638996735884,747.0298413029898,-1422.8038165280614,-3230.9287947387616,4493.023886679127,-2328.358623809377,-658.8523056827514,1083.1829804447275,-925.7002076857971,323.65769527618556,-1114.2886566680133,295.94952512209136,-307.4724562477876,578.9359041581234,-229.31037444978313,153.80778490256017,2001.0787465182505,-4028.018495768878,1410.9096388302091,1808.3609619426038,375.34637621278614,-3207.493069057918,2092.686373898662,2483.3751575219626,-3772.467648349143,1147.9452318972922,-2819.6414605850496,2851.510258010673,107.24179307149727,-3652.9656337396136,-621.6498554688386,2044.424449594917,556.919716044506,-896.0526844027228,1137.295405599021,257.20985383420543,1875.5904157190446,2430.281509399818,-2617.128764242363,2245.664104414663,-3986.6138471867343,3621.739283077013,988.612944354551,-234.72782453410312,43.13640508913657,-1457.414260935045,1702.4375626445121,-424.1851888435056,2305.8974911501464,-2152.5096566963634,2484.9423536826002,-737.8387470620972,-1766.3775400261266,-465.3949581211932,296.1263158361619,-626.9640781228964,3519.854492466856,-4673.502082267353,2442.9198851260285,-719.3659554132528,-79.17402329733221,-821.8673735863819,990.8547064564083,-647.1831440573392,877.9201416976063,3111.0228354710016,-5694.4072399454935,3818.3618101657135,-3143.791711607037,1372.8179199560163,4177.787280139933,-4318.704560195273,-350.5072631743891,1516.7313595898033,152.89273221460354,321.1566244219614,191.48918834308424,2855.0460147754807,-1415.400738724769,-1498.6097657311911,3511.9892242443357,-382.1336741168579,-2256.617398277177,186.53346780463767,277.69281431827187,995.4902071674161,-1393.6182694907275,1235.8342119502333,39.04900320589415,1707.109609725148,886.0157618084072,-1890.5794951001894,-644.1566703124997,-1657.1453496494846,1460.4490921873107,-769.5095346279793,622.2187709921027,-3108.760321452419,1621.7977351695467,751.1002449864906,-1810.5598313033593,455.74398962250694,-1315.2389156565673,1572.9268159160347,425.6774685235998,-1167.147439161137,3297.304869165317,-2716.7845004417363,-2607.2643856407103,5213.954999515613,-2436.442219692197,1819.9411398763923,-202.656993898999,2095.893763939053,-4170.0194959632145,458.9424751669557,2703.180288881742,120.03524453590926,-2995.383970399485,1327.6354279026518,1262.0461368878243,481.7732573221316,635.5975388826503,804.7118813922207,1506.3238986772237,-129.7013982138889,-1599.548085059904,990.5273181793755,2857.772683558585,-2357.7534938932313,1087.4842127108582,3393.16690638811,-2343.95037293007,-373.744191416001,-660.1798664287604,3205.0904601296643,-1755.2993638847083,245.9652328397981,528.7769617020983,-1806.6610457611234,-1255.7618261004443,1726.5767597817674,310.6251896581571,676.6962866886824,-1460.7829112313607,1273.4502619745813,-628.6697366940253,19.364076877891094,-248.39550719260203,88.88347396413299,-68.87107179094586,3787.7821335070057,-1972.4940069483441,-169.8946170442927,-1520.1171346952262,2626.0610873834066,-392.66897979979467,-1680.4506128657845,-1253.9288773280641,3053.026456574702,-1161.0658067482732,1011.0030624543832,1031.0454571535777,-129.02378423874814,1303.1648955507364,1342.897639854496,-2645.9467886795424,-301.7180736652935,3128.808420105584,143.73906418277772,-3111.9228216146425,-1103.4289578196774,1002.9712448214774,149.259078579532,-2586.914455906544,-203.8137141791189,807.4628030355393,693.6126438312796,719.9632703284049,-2849.4345811388584,2249.9271231444495,177.84332298217797,-156.64868111293927,-2550.8225982820463,492.9557361458773,32.87068052571674,1275.4127722543815,-2600.527230191958,1490.1924652710354,-4767.165613646292,3778.7023218562467,-1525.7825063934545,1890.2747078956554,2165.635736406386,-457.1397121375569,-1084.252949249306,495.54430362944555,-874.1223796894078,-1039.9824040370236,-503.10628185008534,791.0730200520495,1128.2881903247535,-2082.0737982383243,1180.7627764699075,-2873.6788458194997,297.84220845782465,1817.7683368211663,-654.8527517224583,-647.1924014742336,2787.375541500033,-815.934876253425,552.3672097478957,-756.4529097834182,-474.92696388496864,1651.286302723159,-1665.3373108331332,2623.0449504953613,-5661.692303864556,-54.55999170401814,2494.523190798776,424.8758574108287,1070.094437381664,-433.022986082515,1623.0024642039393,-1114.0262573269297,418.5512801822895,-561.6591833704941,1001.307237285611,2799.860944238391,-3700.488495506876,1024.3168327914093,-1046.1435325084133,1404.641726600214,-596.2906177388332,-192.62808010330474,2162.4773688650967,-2917.2449051424105,-1125.275678253249,1021.1720757584533,-578.5846750777138,827.9338550484765,3818.042719476359,-1568.9243232932454,845.1741916692379,1085.295412273072,-613.4092263940328,-696.6916734447675,-1439.8188530446284,-3006.037098702033,157.50936557709437,1203.7270801705315,1045.680982403715,497.4315056171213,22.06852940376746,-2015.6771190848583,1372.7924377597637,2062.266595002149,-2578.843379341523,1186.2505588664142,413.3044735107214,-1667.2041088524968,-1193.4214583487628,2358.5798788252278,-1183.4697244474285,-2047.5595129132657,1330.6687759955096,2413.8858435137467,-4086.0196884993134,1479.5045933514339,848.2592260054532,1050.616915673818,-326.12599422012755,2200.102663396838,87.35300534842277,-2406.518179802133,3695.990487094692,883.5343455593991,-3560.164882064807,630.4358294580087,726.7024698732369,15.241327993184969,251.7667687835009,-2697.025696446586,2402.5568440277407,1446.3161634328142,-2569.3382193284097,1908.101547485335,-407.96634416255523,2094.4128577190454,-613.8946011593908,699.049231637633,-1066.7003636016857,1170.072868014989,-517.8914187750078,-149.99890511962695,791.4655377236861,414.4934726716725,-422.3860896790196,2219.160649135418,-2256.5800710984377,758.9227108580246,524.3506255610631,-40.3902831823118,-2698.2997632218194,151.09725869538016,5782.093139345218,-3101.427341605231,-1917.0750117728212,-298.7475144228698,2422.916169702734,861.4551843663119,-133.04443393290296,-2390.1339305374113,3312.539599238209,-2816.578411326598,2149.2006187907928,1053.3929645340563,-3691.0246986543866,2378.047439322442,-280.2281322330148,-254.60828422999774,-688.6749592574528,2696.1831778906358,-1641.1769960763213,757.7548557295621,-3139.9682807456356,1336.894887700048,-107.35890489431117,173.10963641327646,-83.83356253008904,30.565283778221236,-2432.2034428384177,3617.683032746595,-2627.4382983551395,-129.23935563653143,1795.680869962719,-1914.4251118043394,1094.5319152696022,204.44944787615128,1027.6430760391577,187.27562418579495,-725.5639837211364,1171.4067798490066,921.390947334005,-741.4001366720782,1039.7463974498924,-2004.7590382359076,1618.0635263072008,2144.433576605914,-3202.12957468994,1935.5668180758719,-2102.843294095976,-1746.6644789613717,3575.960767345876,-3066.7152272867374,-1571.5502116535022,86.4769401445231,1334.9574725904492,3431.1128090661955,-4389.821761349792,995.4330585679437,257.9964282912457,-1181.255088371382,2770.2099799730654,-235.66720974196417,-328.62560167074776,-692.7105564883494,2627.1791957469436,-946.3195295165542,-3176.322358661395,1096.9694726684777,-3217.7034811322515,2378.3309216098783,-270.07842344872495,1765.115356688976,843.9757383275874,502.48074893316124,-1913.5427499613245,1633.5624698354977,-1825.5183513192553,2624.1384072432356,-1401.629413424168,1489.1507498916792,-1508.4165710107766,-875.3547120658822,928.8402203673796,688.5995896746082,-730.0439652399165,1331.0989010792625,-3157.117609503242,1252.1836201300896,1413.8521333823726,-2238.314258318623,1136.2009859171317,-2080.628650037279,743.8671190786464,-3404.3516393376067,2683.7902841218765,-3829.575114457966,2265.5897872066953,1037.5115230278493,2194.4726323292757,-932.2727608889955,2188.031520756275,-123.3974419914476,3328.1082277948344,-5173.7336588645485,2512.782940606478,-48.99631382543092,844.3620616209519,-193.35174745453725,1834.1413678822948,1264.821539511878,-3677.2450263063074,2164.94753795988,-1293.1877971003496,1464.1201407274575,-2784.9369773930307,-1512.729660156576,-338.6099048996377,495.70047362502606,3156.358299676341,-2104.3883574858914,2143.3425435153436,-1072.524257827458,-1952.4883447020666,2733.6775470047146,-969.0003715658848,-3999.4967532631945,1109.9452753578714,1444.547028111491,-3037.293281294277,-19.33642222203318,2351.2756583210494,1924.9063924188406,-2914.6756986949354,2610.928740261753,992.639689419372,6.496209692189405,-1604.7426400613879,1612.7222368482471,2426.064546612853,-1213.6175599145108,-657.1666313477602,2092.9791378353493,-2412.567194271779,-1082.1485585796772,2979.667497109711,-4940.450525043759,1818.5291700640335,-410.0974784862672,1570.9056109680125,-463.047869469033,1202.8460440385843,-314.5482571904212,-1600.1517252983622,1934.3053654160383,-2179.6242800051505,1555.0756152205788,-484.12325274013943,1106.4630873984806,515.9871999185988,-2236.3998458424558,940.3568685320632,-2701.6709511277045,-129.92871643237527,2282.681036460631,628.3002551105988,-1107.337216687891,1863.8559500707183,-3642.614558108584,2676.730329291572,-2064.0454062101066,2858.6047563624807,-1422.9848700464343,-822.8137055358682,2064.8455938773527,-1485.1895300749766,-1025.5982272972733,2851.2729738747043,1370.4640332802949,-3595.935684429842,-794.8523473158328,4144.980579420865,-2168.1513502928506,61.38050116018614,-1432.285754027681,3985.9939981506195,-380.5638089461479,-354.0590795204995,-1430.3034114896313,3380.2699154159495,-3992.4349709266326,6422.585074390371,-995.6562112411551,-1241.5672045344531,-734.1979857168251,-1862.333184572647,699.1573296071717,567.7270918827031,740.4100373875118,-1374.5102228118756,2456.5376393050446,-47.36138694751153,-582.8646659339706,-295.78547433258643,116.11311899884132,-1095.602632984685,-2241.4317016585005,-286.3821109309989,1904.4061744612816,689.1688239724986,858.9972103048103,-84.92878447745338,-1688.001039137619,2460.880191804528,-2203.442587207751,1856.4499268452794,1790.7602762515185,-2612.004306654433,1070.3439849234114,628.399824129234,-1058.566689566023,46.6172069711575,-2845.0647174984274,2088.7169877388706,1572.5262875582816,143.74932843056567,310.902580400265,-1373.2493534529888,-1015.7242721540669,1549.3911431544468,-2254.3394215045787,2723.4617696104197,-725.2279093186813,1473.3506893655626,-852.1009249541859,-2075.2470901351744,2312.330922329397,-1391.5442278893843,-687.4274267681767,1411.8394736683226,-1038.5300213831606,1598.9749251288551,-3805.59434471305,2625.2802412530373,-1066.3918689273296,-534.1016242383063,5335.572399301755,-4369.848494138616,253.16581556192102,-1023.6062281173128,2233.67836468797,-1365.6387473813272,-324.42664231015885,-461.4424714190273,308.194396155492,-498.10685052113405,866.529157235745,609.5018129685777,895.1375664200167,-1632.6339874422206,-2713.9562508082636,1420.6204809371056,2819.0872251177325,1992.864072390889,-1934.8946789549739,-1484.4344446839316,593.6685070387329,-2625.1432785405445,2657.526318809123,916.069385844302,-79.81117612897484,-566.3388318601645,3121.878050640535,-986.6082160776912,-2903.7739925031487,2225.6801162990946,-1244.935229512565,230.14768433062264,118.43089270783065,-2089.7920224197096,851.3502022842961,-1984.4168073444498,-411.07019061390247,1014.729987100535,1559.9404078520508,-970.2378405141094,-2106.5568054169908,286.15351898465974,-181.37946879701784,1352.2402990537805,-1024.0179231767831,322.1382571217628,1546.5222647991131,-998.5589049859683,-80.97891674746792,-1528.241806638871,-1368.5051649887525,496.2808651093746,601.4430943837777,-1742.2837172776915,1447.0301589835058,-334.0637313857832,-1042.2989550789612,2822.675528076351,2026.016635106123,-2175.772819794832,261.58149006416267,-2069.3114534735887,288.180605022567,2413.257195319632,-2705.7098866338197,1028.4992126053344,374.70759404965247,881.7022679435058,-2907.389328129646,1043.1256516910025,912.5512787006185,-709.8481235327869,-2015.8226099276308,1040.887499435615,-286.4541966999492,-632.4186696882658,-2646.63434667375,1489.2959490160629,634.4222308170913,-1426.1468235689742,84.5772056489523,-545.7130090197687,2299.5297062220443,1296.7515208638572,-2273.251132903482,1259.0062308348556,1338.3385957078956,-947.3437798933894,-1093.169213750799,2717.151899285854,-54.36650780553204,393.39640425923875,-2672.468122154435,728.368729193734,307.7073065482107,-1969.3705321983607,2887.725970381433,665.8808299714881,-2962.329374911438,1575.5914451406584,-499.8227961518176,2382.2954606168287,-2317.5903929022506,1825.687876430726,-2144.696365120437,-95.07558784250564,-1042.8024922093139,-2510.2080944142836,1615.9295854508161,2597.3479311930514,-85.21021796893302,-1583.40017658352,329.9587093928423,490.1989065855425,869.6967770985816,-3238.829364105948,-1251.3308887492747,1975.6153443908804,811.6753210613512,1153.976021701047,-85.00024032124148,-3020.2774411679084,2372.954471117779,-1853.5746261088636,1899.3376440053585,286.8985225369675,-523.5348259274492,1196.092023793499,2079.8977526779217,-2217.6438504134167,1717.2791934704285,-1001.2963046348979,-1540.8646529888397,701.144565191755,1687.8680549475969,-1424.2075937938375,1796.9490022744524,-3587.74675143803,3235.9768461671147,305.0334715535044,456.7844495857425,1141.1983354993129,-2185.381398910815,583.1061450048887,1476.4097853967244,-163.3659029208809,2584.300741678553,479.24428936502534,-2377.9762635205457,1337.370805891543,-384.06111919132496,2028.850732171118,2294.3082105679455,-3815.408721931841,2960.0340783945408,-728.6213508086221,-856.8558834062741,-812.023020397442,4040.0405463518655,-2698.300017368094,651.7124286605032,-2774.7257991754323,670.0555061137311,128.56437871093408,-81.1837586423656,1215.926206002755,-912.4996488516742,-28.962476816817926,-2077.0822606736756,2555.197871336816,761.3136774126993,-291.7523828382399,-1603.8660156742687,1709.842529648107,59.09458426868334,-301.7205559814271,283.6503624935205,2822.4103497447154,-684.0562343961814,-1024.6961762811316,3019.1092353776867,-475.2191487264496,-547.1928795727491,861.208632224726,874.6276918593768,899.9245662374748,-2469.914661389707,2357.7533514364627,3476.119624652235,-117.94422860218938,258.05397483560074,-15.17599036630014,870.976463083622,-1908.13732812294,1167.053982653864,-1833.4837641368879,-930.5428895129003,1723.6297460680767,-257.5029000541721,243.4262401214275,-725.333569033654,683.7609496274083,1644.3433547152124,-484.2172035999845,-1162.0990303973729,-1453.428882880651,31.83621877371141,57.26035526407453,435.4477319633529,-47.45252095322383,-647.5762007723246,364.82963596218246,-1065.098534187246,3809.6716200087326,-908.0591442540181,-3.025166397785906,2215.5939833279062,-2639.0802063380556,1216.6677786519597,-2112.9865129798486,1533.2139677950845,621.9091522063533,1030.0298556188757,-630.8733803076511,193.07034650423324,955.2661221070921,-170.49972667048976,-1912.2724830135528,2183.6091338147994,-160.98657245320953,383.9143460439887,674.0953502476741,-2178.134482338633,-89.63794391520437,1971.3771950195521,-3672.753675672669,2145.7263515123136,-176.42586778562534,-850.8318041875277,2283.637556272532,-1707.4628281890446,3158.639207715682,-3596.834161593122,-83.90847770340947,1570.4186735765295,-3238.62023752735,639.5440093172597,347.5032585123539,-1003.148307890547,-1412.6038606966667,3161.4824206300214,-2894.0827022281005,-468.28204409692785,1634.0357481325707,-2398.9128003687456,-155.59024891351254,3270.478221931512,-3064.2913085376767,3915.1174886050776,-1400.4975839779718,-263.200273349679,1280.1573027054444,-255.13329586169542,-2180.137126576498,3746.5854494412756,-1931.5811206031688,1531.0705606382649,-1832.5946738678883,716.9716381988171,-1565.6680291816008,-352.4595972296741,-2074.2133931198155,2335.95695613698,-3505.9414220908725,3605.796221418629,-1590.3767309238847,-210.32912700299582,294.8933882665786,-2867.3808652459334,1938.9475101087664,893.4929329687984,-1186.4303936300091,3497.2649046113784,-3489.818485741981,-1690.106376031469,5176.033493831765,-1202.2409761027575,-2070.9965862019426,2675.4632132767256,1732.3720070024979,-1770.9966254628916,3626.5404519118283,-2400.3976756899383,4862.605173630075,-4884.36306691462,-348.4378986109027,-227.38013887795162,1804.8453632333146,293.4582443808547,-1050.0151559244282,-1744.515318687504,2160.5341103744377,579.482074756416,-359.75811197845775,-4506.6292698172965,5906.220844960853,-5454.780041694192,2.136219861902118,2969.6646448059514,-3804.6001476985316,2271.7108821672086,129.5833445296272,-1059.3943559565355,-3076.335946087164,1336.7948378540134,-273.592519248934,-1698.5959282549898,-667.3053482880849,-1449.7541104476293,1847.379346905229,1531.3237582833237,-2931.4766333199113,4738.96158433505,-1385.74123176925,212.99508020841765,-668.4865718341237,2877.743903661777,-961.9342983473136,-1571.5601568041093,732.5548238843309,964.6233405261869,-3089.777165937656,5063.753647086858,-2980.992180944602,-1227.8974743793733,-950.8759724802778,1523.581087419994,-647.1296279736708,575.9888372235017,-219.40093195949785,-3718.4666157359193,3869.9244914006763,-2345.6887209163197,-2814.1290342397056,706.9525182578005,1476.9774559172306,-759.1342863523939,2024.571469115619,-3517.792756159929,1385.1134657567952,1338.345009295098,-1416.3951000357886,-386.08749322486153,7.6539415260410895,2107.557540716533,-743.0499163504059,770.5475376451714,-23.192484543707142,508.1031611625134,-1983.146353375443,917.3051400609471,-2185.1287446267174,2117.6207078515877,44.310659192520035,97.67955092734617,-2875.408519233042,-1001.0943083748543,3973.7703456894687,-1831.4569504133563,136.35346876916944,1171.6716350483377,-3012.636872302651,678.1978387025056,403.6756471089287,-98.3740719859368,426.4514742734685,644.2451648240863,-537.8673993233289,302.24958943601433,-1468.5534081065503,-51.144132498183424,1676.5249197062099,108.10775252291387,-2318.0854631140355,2251.9004370811394,-221.0550262938927,-2123.6926768237167,2611.7364607514323,-370.7863810492462,874.6575181942427,-1882.9170351532082,2402.7346707668326,-3016.81447682264,165.8973608478452,1969.1360007932171,1864.2422395760739,-1692.2298561480723,-1764.1783853377538,3875.3825120924143,1236.7779486127106,-979.8084257785871,-1005.8881438885578,895.0737045365,266.44335482063536,2604.6394719533505,-3886.9224939462915,515.1925411491546,1609.0020274930805,-187.95512913775045,1269.9975081056548,-589.2726636203366,-2098.331363542591,3082.137192154339,-1518.1232499310872,-613.9021242202978,-589.6812265814613,-2287.830341937585,2370.746925709349,-72.97007406838556,52.072126943935785,475.1009685788251,2741.56042223042,-1714.3044036569388,-414.6436511370615,1659.7848616669842,-100.03692557389287,-1572.039799914388,-510.7139722819582,839.0944981356101,2721.008924700682,-1799.3919363166583,-2435.576470032617,1718.8334210418875,-971.3711521277797,1729.66687214026,-68.60102769283586,-1516.6726589919815,1122.9955760931805,-2309.5136976382973,-1093.6202962673588,1365.5580879034555,-1657.8542011313912,1772.0974206051947,-2501.7501656569907,2544.2383088809947,583.8487699610837,1604.1233919135254,-630.4298871921088,-1026.1239927538568,109.9563961278967,3130.839125796849,-2463.8944503350576,1640.0486667744535,-348.549468351068,-477.78710136448564,1553.6552019426576,-462.09947330610413,3511.596987464173,-3548.1766614108737,-1553.6491851169287,2419.3734162153983,-528.5884660105216,-653.8768107966455,1630.9149622003004,896.5488640631805,908.4913422920217,574.5171304072461,-680.4330818824965,444.8550691970241,-2477.9847458639156,925.7303689635925,421.42198545446155,1177.1926233684408,-118.14019049477947,409.2826226955624,357.2151903773699,-887.3864338032942,-1970.391527336488,931.2761316099411,645.276491055023,448.291708555519,722.8350126847595,-465.1017500701206,812.2540936306848,-1642.7262225829252,3713.4484968618767,866.3996823813012,-2302.889968073575,1792.9446217742732,812.0908492815838,792.7381822963148,-690.8638890238678,48.4001922096968,-549.1070656687938,-936.9635374083896,416.2573233236321,2168.2098486795726,-2124.438289877903,-1299.4717248937993,831.5510140070569,-1331.3983295824087,-1140.1714288141663,-2055.0360094073285,2878.2990539049333,-804.6978477556823,-307.0012395837476,3326.7090650012537,-679.5135240388341,-2131.377756729757,3773.8446464488725,-2008.512259464126,-1717.4860595845664,4770.878325334729,-6079.4044562689505,2076.0204484972,-632.5433396749281,812.2245029660943,-311.1702253200879,1896.9668752582656,536.5976566332303,388.74302523729233,2072.299294805084,-4484.480807150857,-470.0304590065342,1126.1068287177443,1187.8684314340326,479.2097020024233,-483.3595926452303,762.3744712385585,-2565.6175440518705,3172.1073149342787,1018.0920212565694,-1963.4593288737815,3246.957339936611,-3571.3884165727445,-350.98329625864005,-57.46144227504124,2363.4954248745216,-3164.6601379849217,-1584.671885181731,4971.810945345776,-1931.8098737409937,-400.44848044453084,-2130.0295075922186,1863.3833992640043,1481.210253788663,1582.109447963036,-3332.654553873768,1257.7178954369974,1756.2693885627436,-590.2956791745004,2377.0830696369567,-1505.1308368689884,-26.469400251100197,3678.268706134289,-3107.4932433289646,1663.6449153464575,-1417.1277485557628,-299.6950806685095,683.1137435605353,815.9187822978695,-2810.754814047763,2548.238568514943,-1189.3606799618535,2968.997799660863,282.08619290110016,-1561.526756998857,-2416.1905420680337,3177.8834000124602,-3516.7432561907203,374.67971079099283,926.6186785125843,259.9821978883267,2700.758953066416,-1075.844113169611,-255.25337453928864,606.2264136205911,1556.1316022226438,-561.3269560570111,-2539.929776446245,-1327.6432539824903,271.9767914585954,2655.9198860464016,1639.64788897551,-1646.2663829573146,71.90736839583587,1154.8080474472592,1787.1809923525848,1267.6375168911406,-2491.33260165693,3452.239661042915,-1242.7516672261181,-524.6639078612557,114.11857439356955,-527.1559559412922,4450.4117925993,-2953.9354888543908,459.22916468463774,-146.17952641610404,-728.8313263457976,3199.1495065992626,-1652.472702511153,-496.1300542941906,-914.5153534192978,1841.825794062478,-1628.632581554079,-154.85200666369272,-1047.3079036870383,-384.86530901034195,-648.4479807667757,-1717.0465072479246,981.802770295344,2602.150256060321,-3346.518434197954,3484.8452585309383,-2469.5257027486996,-286.7646255565984,1400.2883985075273,-639.1666896199395,-1196.5007422068184,1985.7245038451115,-1144.8281499627026,-1615.1784170473786,1102.5167187895725,-273.58358949845547,1650.9499101757954,-677.4896145114812,2031.3630840247245,-1370.4135223479261,-2228.190290384805,2534.3109142999583,-272.81791195165897,1104.0228590914523,799.4872816719057,-4176.474623687214,-1022.2844316772691,2985.1995288379458,-731.7255036015335,-2881.8663559792926,207.5966204863571,2267.1930542040254,-2939.382065968328,-57.49137157331854,-763.509544160492,2831.802043382036,-1631.847962638335,45.56220769675783,2556.461959217776,849.3104085218924,183.27267637544676,317.4691224099239,535.0184931425956,-1005.5837379967712,3230.42703909339,-2019.8875983109108,-321.0360583076796,-2230.6774608212927,1348.7346561154168,-25.780590450514993,1822.1852693353853,-430.36695410265315,-751.1140404025646,-18.525734095553197,578.321303152616,652.5517857699441,-2062.864825665527,-279.8393437619507,1492.037212116934,-2296.8622612432127,424.3386246160033,951.9310729495961,-1314.6420611437889,1463.244170498445,-1192.6388242358255,-291.2546980441784,307.76713332557233,1817.1891884741865,-3372.5005920427416,-2640.064711958059,3288.1824188786168,565.4932906714807,-3129.272784702293,41.41940086303109,1272.295535304371,-3574.944707982858,529.0204628339366,-173.4332632825828,2930.774974593015,-433.5322454236976,-601.6942916114604,823.422278546331,-1902.2138526189776,-2937.0579917483074,2205.9042304739432,62.49331152611331,-166.34874190775395,1006.1523010264059,-410.7247590463555,627.2522637982402,2756.0480374841327,-3609.822527890876,-1585.449960448112,5285.625432341675,-855.3795347088529,-2890.3804895549733,1436.9296512349545,-299.0496211033123,450.6625935211832,-1588.4149581351753,1368.8272618419078,-685.9363289773933,1008.843247840053,2097.371353034341,-504.6691227505638,-1569.7776876568685,2003.6499011682233,327.7549765571581,-1539.9161006103304,1788.3562858618677,-1964.9824237198795,2257.0679108351887,-1360.2521947811308,3316.582745347216,-203.97170451646176,-337.9944850438465,-1563.0134005415157,2701.980012839974,-3026.6756149448,2221.796787076455,2179.852354482797,-166.6231345326138,1645.5670815149758,-4003.787667628521,2540.0054609072295,-1913.2686495101402,-740.7038039349692,463.8035643859509,482.9448676628615,1223.1183091462092,-3311.4355296763615,4415.959922639304,-1898.192219100832,-1365.277175844958,3598.8610427953186,-1811.2336234340137,762.5640245617568,-1529.6826538162966,-852.8726067506191,-2606.565198737772,2644.6440905398385,148.25382698533525,-2095.4527419494316,727.2287891390183,2755.933767668368,-25.230239991114104,-1518.4452084872964,298.43883917641034,-2416.8966907915296,3092.0662966243935,-1964.5048571932466,1589.4807252473925,487.7514093805345,-1179.2172273670858,-368.89066107695226,540.1881177665408,1394.020527447919,-3960.204866179483,3718.687445856784,-3144.6950349455133,1048.5025940217154,3161.435353181478,-2080.4805243906653,-800.6324974920426,2707.4993811904897,-1403.6434577805633,-1069.5868837862654,2612.9603276638136,-1477.3446867289563,-347.63863311724344,415.01587566025273,2914.0645190812747,-2097.931975929167,944.5724540598254,1773.9258642641091,-161.37873301274448,-1593.8934459423183,2111.800400437734,-1300.9673467759756,-1787.8894307896203,1122.182697617238,815.9949227622446,1893.37372594197,77.52936896954327,-1329.4315303980738,13.234866750926122,-4410.196455140452,2652.40074165411,265.73283381298745,-1089.7130908919962,-1266.0983376978575,325.699925716464,2264.07369534051,-955.2844371164601,1614.2111473734587,-3508.6025085481733,2911.792913959832,-2344.761997131327,2690.6317070155037,-4.87985129008026,-3339.30611384932,1973.9946780290186,546.1663742632521,500.71114066203313,3428.1931872926034,-1405.9480321277056,-816.5664549063898,410.5515746147464,798.1766896014668,-107.45020417679083,1861.1731658323995,-2033.4708586349325,15.537793352527114,1868.7963116671267,-86.3371235437188,-1630.1558926993653,-707.008416854293,1276.9946817867797,-755.954522994707,-2485.195240079999,1685.3479919550614,-1210.933816742031,18.254656252010065,-30.718709603183925,-854.1622136742589,4114.326426124461,-1627.8045901847852,-2428.061456708137,1575.7603280298465,2180.4037098338913,1473.7636015307146,-622.76141471348,-3083.6138500420147,2755.5867925487055,-2421.5086449482105,8.082213122137546,1313.217217367392,569.2474439195793,1006.2067895242177,1388.117673304934,-3076.999907811667,2758.565957330972,-2001.4447847634815,-464.4146673489891,1452.4313695739347,-596.9449822603013,-746.4204871249243,-512.958650387454,-1026.068253448388,548.4590620065461,-13.414160144422603,-207.98412459464723,-1179.8863103212639,2730.6783151990676,-3243.277810703308,3107.4346420986135,-906.6303046815596,-2.35821669572666,229.3535810545144,-696.0512804171663,-3359.777495021212,-514.1547993264435,3443.683869371009,1209.7057931877528,-232.06722800100698,2379.186452065495,1395.8432803126534,-1260.642672384698,351.70246011091206,3715.532075532311,-1678.3896510470502,3131.4765267605,-644.1455392750835,-1146.0145188399267,-1540.061314249545,1735.5724023796568,-1478.4499908667797,-1615.2959323445973,3794.6481979155096,318.30877959622586,720.2649405600388,-2453.8998597710165,2249.5559847883865,-2518.3463310622737,1364.0320906922786,-262.0100507730156,-2043.4137819346038,-1406.795220173904,3545.9133311263618,-2706.615380665893,2257.4659182110463,-2489.8175379702066,220.72156682868138,2259.9262029787974,-2693.155852476922,117.52149372221582,415.244501527309,-3268.642708029377,41.893156394629386,-125.96524713598683,-20.980285815628612,937.6664110156105,-823.6431530873967,2430.255403280452,-1505.6596343977901,-279.98012452611675,1051.323136596198,-939.5818941890797,-1217.2846457586586,-1296.013819032292,533.7679039076994,-1767.5347492981643,3184.451809266705,-188.8442864940175,2424.4103357911213,-2992.4137736535313,-346.5810046322671,585.5894947178667,-2158.2033417283537,269.6513310650563,451.69939998822736,500.76075880694543,-1388.3778339469538,-122.22534930244876,823.6384440523315,2539.3504142228553,-252.6033446947041,-2533.2103296969435,1404.1625730625733,-148.03072356464824,165.84967840064127,-162.73873952136,-2060.300362034239,1070.2290167012736,-2495.9534081891893,2929.2777502991858,-2581.648849468811,1194.1605550666195,-1452.6386861244691,1941.5105342016457,-351.2297662742663,-1633.5608988877552,-396.31140397641116,1402.9300313240121,-554.016942625354,521.0609084755965,1031.6253158119105,285.2534816842048,1366.1291204247784,-2926.636432426653,577.7146193430993,1773.2808061472044,-3689.0250213005165,-994.8408347377242,1310.8181548325094,-1730.6789736873625,2175.433336880282,-610.2438773974135,-2650.4748914116194,2300.2809595570584,-852.2909623183883,1998.4559503189348,-2117.282097909069,-1245.2778895848012,668.3556432669419,-478.538826530734,-153.73053813857362,822.4100952873184,-30.012337833314213,3163.08496430125,-169.40889611262833,-1478.124741991598,-536.6794534143988,2506.3445609066234,-130.57985816908166,-543.9887103762549,895.8059117184144,-2148.9796269631306,-1083.1559420130095,2617.3820182710006,-1979.9612304141067,2122.791436628929,-898.4606632413783,638.9588039702621,831.0754553689196,-1081.982009582869,2170.29522743351,152.39679992315396,-1617.700018485965,887.1946203109566,1620.6869051877154,-2047.1081505750979,252.86795840162188,-664.2282405806866,1745.1140161737085,-898.7977002524236,561.2865703500742,-26.935392364845974,1501.1929730518982,-3333.270648689566,136.7263156645553,1650.2539210951925,-4828.634999268306,844.1441343027731,1170.7847828477925,-2872.9901755568576,-256.5520453433905,6086.815112253637,-2525.88062067218,-145.20105517111267,1505.914830632637,-1197.0399198544187,954.093685448785,2159.420813507394,-575.7121405208665,907.4558477710888,-1815.6438035787248,2118.6367701435556,-584.841063853901,4048.5535609330914,-3713.178620849582,-1969.8494198562291,2081.571738295991,-1722.9674264627588,-195.5448320255265,503.14835057578136,167.73071098124038,299.6732197544585,-595.2918261640986,1480.5991110679915,-297.8313977153703,715.4528585168988,-679.5237672098157,-2846.7236966309724,2595.054968912179,-2566.038674118131,2737.4474606108574,-1913.871716789969,1585.7892968926108,509.1398143534157,-1957.182169733992,-200.77953873777295,430.1502094629081,-281.16539790638205,2085.683652566678,102.00950552802314,625.5629852653809,-1284.3148647088392,34.794054799416735,475.13315126159506,-735.256551904336,-3056.1056604040514,785.1824116269014,1521.1201734579477,-745.3816216020844,-977.4095002759988,21.173521880666158,-4345.538405121298,982.6667527600682,1724.1593539349672,-1290.257416562507,880.1851013651097,307.6535244447499,962.8513669949118,-4298.8408305355,2953.8719225584414,412.66673622813045,-1381.93225890198,2191.0090198167686,-1217.3080336756823,-1983.5653055971227,1819.2407801114214,624.976925589602,-2063.8098808493437,1144.4865432020988,-1236.868131245684,384.56223947907796,1188.7558651303186,-1791.9936684599497,-886.4963618923897,-47.01727739738266,478.8819433061242,5.61141262362682,-47.85054874427183,161.55176097941666,-843.8219217343067,-2689.925398279056,1274.609917858002,-390.88784234137347,1979.2743095290189,-1481.3904459775388,3218.917141632946,296.00070395980254,-514.9346787036436,241.53434628261508,-2257.244404150552,-404.8743827071482,1386.0251743896663,-1210.924653731489,543.7246493478501,-970.8436837954068,73.4963068023959,-405.9417767037758,-1632.5659791136704,-953.980889946855,1474.8176510388012,-1887.2291290946157,753.9807663381839,-1.5311465523996777,-71.69287698969256,-1734.1110986510096,636.4894319876191,2001.1029364351023,638.6412428362279,-3251.017230406695,-847.6053252417478,1807.4221761797778,-470.1139078208818,965.7814471883356,1189.025357400841,-458.0072793563111,435.0863745505965,-2321.8635868868137,-807.3154723931983,1009.0603455198278,-3791.9711605804296,3424.543063651916,985.8708661142055,-705.8789194408223,-1854.7476224716895,46.51389416780555,357.2935192749995,417.50520576005846,-1727.5121198682994,-722.6651510394913,1564.5105134004532,-734.7513194711606,1243.7297044949055,1571.7455233696257,-2544.23893315375,-700.6314653688859,-816.1639159694599,2372.2047284875193,-1851.111356397986,562.2984416368853,-283.03573196214404,2524.0663561718843,-968.0288940159473,-2576.4752310037215,-655.5716084467329,-20.465179417282215,448.6083452514729,3433.3556412886937,-3823.6452942412566,-176.41674542339067,6.837616667182992,266.1046698968844,2342.3357125420775,-1903.3498999255798,1829.9541904352172,-2549.7033932729432,3213.387094453694,-2033.9932937865003,1573.733841880548,687.3578081783007,-1230.1365075267322,-1180.4245199438585,2200.934385248611,-1266.6465220151215,-1774.290745917066,2310.120350776197,-984.4288969902991,-2095.984727397213,-547.6518518157126,2469.2670406125594,-1750.7920672095302,-1812.5253291635966,3035.5595338351127,1845.2598892941855,-1480.2051330563158,1938.9631688619934,-168.0068245206129,-475.09677767562346,-825.4962583828657,-509.132117322624,1661.7678483340162,3123.941608368223,-2729.808928843264,135.560731410532,1958.5992257852804,-941.9476170531747,-941.5855592349733,314.45249776636626,978.2436742144808,2025.0344635931085,-892.4441714003498,-1188.763999332762,2801.178877271828,1750.3190855622506,-5023.13571977319,2714.107273064129,-1375.4655257697896,-849.0452276889124,-1100.1578167138077,983.5537725795839,1169.8362782382255,-190.5691367346026,-375.7007291172382,1822.4337643927772,-1285.647951304297,-2243.127243147076,2190.049266220499,-1035.0904429945954,1872.1935318352532,-1297.8239290292865,1692.6983322123926,-3803.765600092844,3500.0786604676327,-108.39870344909909,-505.9511959662311,968.1248016783275,-60.40651520711108,144.16839626200652,441.89583944323755,-118.78609183133437,756.2556620472895,459.843513869074,-800.384034723113,-2002.7899636338777,652.8596228739194,2040.5033724324676,-754.7647862067074,2606.4145137319906,-481.5609402586135,-2008.4725393146382,492.95533104157084,490.4570785006272,524.030236966711,247.6799567164014,94.35872719719718,-557.6714646624548,953.1306881270481,-2434.5250185711125,-290.83091071775283,2117.4474981860553,-2129.2643140372734,1109.7056851004322,2880.10343910267,-2951.2026263136227,2035.2041283616686,2679.618769073081,-3134.1408750571245,4128.642822424669,-1567.0410057440067,-291.3801434466124,1741.2302723842733,-768.0845466858977,-1715.3976835790984,-1662.7564698102494,3419.684870930243,1047.7093985329523,-816.8142242691351,711.5728352699242,-474.7762721218918,2036.679436094483,-2403.387401443166,-37.078347912783414,-1183.1440046927946,-1650.7998808658594,2080.778363110755,363.08039167207795,-1573.5177735712475,-1819.9525242630998,544.7394833345925,2661.0112767422474,-1573.9066933672198,1837.6414537177186,-2862.8521287405983,2132.0693954778703,244.7715029656816,-632.596599848681,889.728750499762,-943.5335615226414,279.8040357613591,-739.9273319518619,-671.0183978923648,1105.9066600644555,-3050.544887527072,2818.1800261162302,659.726141021586,2063.8282019950934,-2785.637765391262,1120.985407124248,949.6195703660228,-582.3632540923252,-1386.7237881632773,-1743.4475962799436,1015.5061789832048,751.5736977061871,1569.9200556147957,-2588.2105877592903,1412.686073205828,-1025.6170493590896,-482.56960950569845,1831.0458612973819,1206.6477468500896,-1195.9574679879486,-793.7199119494776,6649.170026099446,-3122.457439335026,-2099.8907471486564,1056.3972353511842,578.1865505687125,-1433.6327030836153,1517.767109139021,958.2927245224978,-1028.4601297721872,1571.525017505298,-35.25823991713165,1365.3602913218824,-629.5763598683953,942.6803292562032,1896.5466844527662,-584.0561049919455,19.92696224324316,-1139.6166441115538,1656.1964306912143,-3879.441691675578,3700.4662321139535,-220.87633275679747,829.3107901073549,-1883.056352262089,260.1513887729996,386.4554426875292,1905.2294642483603,-2713.4384318882803,3389.503808175919,-3364.090106136778,-3339.2129939766933,2447.3601332461717,-26.427321168289637,-1712.2399360677334,1013.8752513587893,-2.4096681575741967,-510.2064636746127,884.277465395068,-1333.9672916448949,-604.0040606888208,-1347.716956546443,3442.284509124582,-901.8564702756174,-2662.6094715181985,691.936379297376,-1020.1479134053474,2509.7329681721535,-1389.5643112553425,-3254.68541200468,5372.786980284755,-2033.4069780025986,-3316.9842418464314,4868.307855553506,-2549.7361120967885,1979.855041627573,-1611.2836380850047,1843.0889160610386,712.376456068886,-2605.8543442921446,1179.2444807078425,1871.854886075072,917.4757287585677,1373.0650537382257,-1387.7266854231398,-3223.551023109776,1789.1993616103357,2632.238562369355,-4716.132157757124,599.2463294684051,-1120.9940118403742,3851.655993466513,-4947.8806524070005,1379.2115202726834,-638.5122997632751,1760.4053247392542,476.89695175981456,-2329.028263932655,-361.6300381505675,-47.92331159325599,4260.049813605481,-2818.377101428981,-1720.0862507613253,3485.7800061547196,-3672.188967249177,2355.47059294704,-60.62864887345371,2065.962652898579,-4801.081133312499,6055.039734036994,-2024.6886054581548,-1810.8254833675146,3072.004063469796,-346.71120326806204,-850.7569918994667,2975.385288250118,-883.1906244466247,-3232.638527348613,4401.659189973535,477.6450783163341,-1531.8042201347253,499.5591336959691,796.4955149429247,-685.9507664538562,460.6816080065249,-212.23422976426554,1259.2108401742848,-1165.8015619567109,1192.7283202289555,-1002.2604278353238,1439.5413964658644,2239.272074669154,-2547.5599273184416,1008.5189889243167,-1314.8453417813494,531.6820698795061,48.12284868663559,-2156.227328462985,1096.898928327352,80.67186955171849,-543.2391639967421,2200.611983660254,633.537168368312,709.8266296417714,-2217.6642679887573,-2151.830253313973,-1351.3238575969426,1309.0401910786422,146.7211140012067,-1473.504013840101,4491.710346931696,-1747.8440521172954,-718.5981775763556,861.9534832357109,-560.6821980230478,-534.4420199834378,1251.5620603237815,-2437.21169725294,2182.942978425456,1704.329043323785,-1757.9088747634132,-1442.3661494517128,-1411.7659161200559,6267.544341884268,-3167.057424397719,410.9386584322424,-522.3799021514761,755.1510221834988,407.57684811861765,-4261.097630666844,3922.9455967972863,-1142.0367948042915,1077.7826978592022,-2417.437161309647,915.2203053654052,11.060024756142703,774.5221657193797,-779.7029328920812,2617.497851909552,-2113.454330209204,-704.118671525645,198.25336173961423,482.2237389243447,1332.3159794773069,-2670.474181620617,716.3741962348219,45.411580282081594,-61.37900967010722,378.3729099815318,1907.8635866710151,-1188.6693198569585,1494.4642540276463,226.30476699249093,-1400.0819153435107,-608.6619546898968,101.92356859465536,94.20989198220035,1731.8103849184156,-3532.8897080548686,486.3905365424114,2569.0553237200393,-1796.101899205894,-1168.619709302952,1134.1647803956107,-2513.484519260939,1137.9114226998215,-1898.217216897021,197.7342583631882,722.0414873759318,1370.8864333357062,847.3239466014417,-826.6998620170784,1884.6711638998156,810.7436159510831,-3597.6604727793083,2762.2269577940588,1466.5024357867594,1798.422136595314,-1745.217386773516,697.8155634477619,-1217.689779769281,517.2687584858958,-806.4457888040954,1487.3295929727476,2171.7766104559705,-3836.056970103575,-154.69512929426762,1515.0746683476016,-788.2315119761895,2407.335636621457,-213.29605313962267,638.3082094609346,-3078.862230637665,198.6030098476696,132.66357229652928,-10.300294212703957,1052.0014563200652,1248.4981037152143,-4357.356590718939,136.72272525121397,434.8853115583432,-621.6669905934239,-2663.0250519294123,3338.9313267920206,-1615.8941334994586,1485.2974208458397,-1346.5100268575925,1251.7112122250023,-2474.4170811082854,2192.6871146447265,-1605.9953268915178,-5160.269807524653,5465.266427240933,-1902.373897075819,-2660.541800719806,799.1759015912097,-1577.4502594379996,733.2623962152086,3938.8905068804584,-3681.139625572943,1330.3962577804805,-373.7123038786308,2047.2734916464865,-3581.54042826374,-10.319810965899123,-128.3633910194835,-1722.1109738163684,-1044.3968666850164,565.5933752237511,1312.5889515729684,45.139775116146026,-1343.4313542709654,60.572139534899364,-701.835675515749,-760.0693017373068,-2004.832962930851,731.2844522733129,-3090.7655153202254,1442.9988346628018,0.12097427155291371,1349.7021112995176,-2579.650286340577,3870.120338055563,503.0602292812666,-2801.418766194431,1980.1932503784121,-609.6014229427711,-682.6694346928941,-770.3692126325005,2260.1998764986683,-1248.0705666756417,69.39356061966673,-404.065042031202,-719.7663637541394,-815.4990995641701,-1005.7419209922426,256.1440755851251,-637.1208987987534,1485.8794831371085,138.96873378764028,543.6344783185291,-2020.509621616237,296.23834197626894,2588.9815016825305,-2357.557532367555,-162.21497880509634,2083.612126820561,-1884.8052185324882,861.7380106204644,-1139.7113618213275,-2198.177022388768,2107.23425239598,1901.5243626189686,-3908.0722680481044,-1177.1749442053633,2455.103281134949,1743.292402753863,-699.9688204398351,261.41288577012415,-782.3020515056033,-340.7924561433889,-1114.098014094888,899.4188356195766,230.16354509429763,1126.4122049299287,-1111.0898087156013,2764.944848430937,-2995.65720771201,3704.98602158844,-3399.172033886681,-501.2362935089017,189.15314605225873,1160.341747842628,204.12435787451125,166.65900001403392,-3562.887060627719,2022.648408741637,3277.556722380934,1606.091004763837,-5525.116428863362,1526.4266587642965,1504.8560751629336,2223.1313956104013,-121.22720522071846,-3102.643011905095,1431.0913159753882,3153.0680253502,-823.5962375657452,-4438.708033208807,3536.8170057959624,-737.9087417770036,1560.200628025999,681.6407564876635,-2720.873012741651,-23.473278912192292,-1186.8079276991102,1136.6093153700542,653.5417025051955,335.7843639881311,-2448.7747296132757,2438.3277972492315,-2134.1048873101304,-1392.5883066595247,2369.408824864278,-2698.627331861258,-3270.8130404291373,4073.243031129933,-653.6179724257948,-2540.403817419907,3673.641817316878,-1045.708073155713,-300.5551156762702,361.394751911834,-1178.567475348897,2639.3976706048043,-1656.9425789124764,1581.8458919637983,-190.13013494039689,119.40230764210948,-1065.4258465491432,1003.6831804154355,1510.0773745887307,-854.3016027123688,-191.4513285286802,113.77787077961763,-1517.5498737423718,2915.214308963112,877.3199459320259,-1344.11177728312,2362.955992298735,-2164.5497947894996,-949.3852577309113,2114.397129910287,-662.5379218194842,4151.3988589358305,-1692.2546714254424,-2755.673150479156,451.3929047057017,99.26326836916066,3165.1736556863343,-5074.877163330811,2749.3851489194867,978.1532855541735,-1172.4300450746825,-364.539582453976,-773.6270322916008,-3299.636101252705,863.8011772622939,-43.24280516612167,2468.2997654519604,-3132.0704672910774,-555.7778861813755,1046.5854559582604,160.94299421301935,2296.1147161004396,-1998.3227260683059,-2246.8588251911965,2675.307792579307,-2148.998070319908,1481.5290830279625,822.1908289102239,603.727102282701,-2699.0989236899227,146.28899879144652,-757.1809662232308,-1800.1709271571845,2853.084465877596,1949.7699965153192,-1642.6890798239751,-10.025983358929006,884.0870930302766,316.89866123161215,1280.4266527907967,-783.7454696970224,-250.46258259560432,-966.3577192880042,-2757.148830938116,1391.4607262152902,3279.354350877597,-169.74609422564848,-654.0928949753577,2527.3426558949614,-599.7693181690879,-2015.0251526156364,1139.775821169359,-401.0965916652474,-23.859184547156783,1633.4859988338555,144.48870681691906,-932.2631790676817,129.67203470925705,1844.5820995270274,-805.5284744454385,120.9520722098913,26.912012650554125,-878.3998786648664,-1741.1937787526208,1795.284972927283,-808.5969361626136,1454.1469074411195,-3370.4148324493594,5060.870182129763,-1597.7594891471217,-337.50439975466145,-1207.878044208613,1377.7012116007982,403.9171847416004,-3118.6405072501993,2182.972817532069,-1643.309776842511,2758.1619504536134,-2885.8051667506084,286.6171581146082,477.4589061624884,-1531.7276675592639,591.7609675629104,-2219.778262743389,581.8142677705248,-2015.8031439540264,919.6038534013336,-385.6600210260115,-900.4396856185257,454.6889800881142,-28.964324642889586,3238.9390179753177,-3540.1745187211636,1742.555117459413,-3765.668857559907,-270.63062485336457,-308.8176311400981,421.4596139752339,206.34037852220058,-1248.0269174112432,3584.8280139603257,-879.0381993049878,-2642.995822641422,-431.7963190350998,629.9760820017814,934.3879544707728,-1089.3661038623534,2516.461539135549,-2995.2884535605367,2286.6462372978726,-2420.293266512117,2000.01423797786,312.57106692937623,-125.22173958706767,-1040.344029427202,-733.0915864387382,857.4803258151081,-68.2509272836495,557.7942284121649,-1705.7605948599605,578.4644297710413,-230.8395747621872,532.6970338731692,-2048.62909763725,2757.693333512704,-1433.3915089195777,3003.539924137826,-2287.804761360204,-1139.7901515824403,2461.61007591154,-4013.2663421276475,1885.1837989652342,435.4494925067381,-2838.564997126575,1899.554432315011,937.2463333271121,1449.3715919643007,-566.4404388823765,-329.04394302618823,-1400.6310583714917,847.9209426728418,1538.693164250688,-1995.0640447324656,-1902.2148318466802,618.7562952783351,-1887.0122544068329,2075.5771801667956,-2727.3083697471243,3502.110702707236,-503.83212785598005,-1634.0700630681904,-1308.1418469893565,-1064.6143166170896,-2300.527031179588,860.8877871240413,3045.2211632213603,-4275.138560747931,2508.0115241057288,-2508.9944306484326,-1011.5726545517921,1813.2079623223428,1011.8177720701159,-3391.3950453249354,-30.2367720377379,429.0816945771106,834.8307700536758,-252.01605650850456,547.9973853565058,564.4386649349356,-1338.4833652803093,-2521.8718262342354,2598.141303822247,-2516.850485860487,-903.6296752181634,2459.4527697484264,-1401.102962255235,1378.595251446566,-2079.4975908924444,666.1495561899595,3443.9663393766555,-2237.1347417249253,-420.8011983732673,621.0395555926301,-1721.663159986102,1449.6889121043741,1306.3015937990158,-706.5126428612269,-1767.3013908301139,1835.5256259187038,3205.1816006840845,-266.896559857044,-1543.5063225465167,703.552112305894,-1407.6301887934026,1308.830655896046,1197.4932645171168,327.4411752318406,-1500.0332696757105,-99.25577360442628,1085.2877038570848,-1049.1918707013454,2525.5976630368805,-2195.81263234919,-191.23647740600484,-2428.45430510961,2648.459471651693,-1245.822303636426,-697.6553964152769,1317.3788679008233,-1363.9624224887218,1027.5502079645987,2178.4957563311227,-1718.799392595714,1522.4353081838226,-2006.6137841547834,3257.33637261583,-1703.0549470450198,175.07038012286807,401.53373027652907,-2347.540854880119,-474.3269848129683,4924.986908404867,-1853.7041584531503,-1998.8700833776948,2560.5906299707603,-4037.8505846942535,1280.5975400531395,-572.6795263569154,1691.9153554896661,432.3727231359748,-3790.6575484231303,40.74599987006221,617.7448925925053,1091.0136467728607,119.50041942747798,-666.978788571687,-1352.17366647165,-1654.0854729774912,566.6696566601022,669.6670803904917,-605.0032997135621,864.8876089788705,1134.6022506324393,-1738.627281262707,2303.299524798338,-1193.4606706157442,-19.939841380707602,801.7744140953329,-1482.496558815974,1169.5354847175067,-408.7494963978208,1726.9472994755351,-1737.0113604761643,1129.4812906646598,-457.9057810958389,2383.826133556435,-1384.3945144381373,986.6545311187958,1356.7075358141612,2500.0165145650885,-1056.3354562225338,256.5553787348675,-848.5589431122661,-646.8709959522926,1436.3231250071622,789.0427619915035,-1775.6652091497745,1010.6490757259339,722.7222466870212,-2188.9304340731182,3155.0998315637858,-2506.0930200201706,417.6691172664859,-442.7779398023231,2759.6041068604663,-3478.2622772908107,1128.1291866339948,3343.168344816097,-5166.329030965467,2496.0149528862826,-145.9701203097843,6178.605001785669,-4181.800218293494,-1480.5262785543914,2272.7350407384674,254.89491097791847,-801.1663205897265,-264.8234792668708,-439.9881690833393,-60.45312095525653,796.5983063430598,-2140.043504402199,1705.2552769898464,2033.252777224523,-413.84095428677887,-1945.1910049054522,-1366.1557651603841,880.1425819331064,-304.0882186420125,-1275.3805865135503,-1229.9878349755525,2697.7997101630435,357.3666463046236,1633.9879942699363,-1519.0468937576534,1446.2074014421785,-1329.3361653560955,-674.3109144855293,2101.3818925632504,283.31908352768846,469.6845984337371,-2605.617376244216,3431.325711373818,329.1142778101104,-1083.716655649809,-1641.1369196174148,1997.6073913163139,-426.0777633560032,300.39486980967615,-843.9571235285711,1509.7209200701805,89.96541358098052,-3750.2171376151314,2239.2960759168272,-539.4708138176816,344.2919045107454,-1691.5048696145975,1259.8671235521872,360.33520388741306,-184.42977496510358,353.03836564776424,2953.5644584912834,-2020.4296280433505,2439.8680036553374,928.0325605955794,-1086.1069756208215,853.1078307717218,-223.62594093138796,-667.4065501830717,-1651.3508632613648,2784.9546882712666,-296.14139081520983,-1395.6110665234958,1124.9139036974989,-1024.4212076571662,2100.9472862968105,1253.6205831637083,-167.49465526954248,482.9638295411423,-2711.3185602381964,3749.2090755211398,-1440.8345010446124,-536.3133643127198,-1279.8513600470217,1618.3056840222687,-650.2031821720155,988.1669081066234,-1088.1696416489297,1622.646539603856,835.3545284816273,-764.8748959384116,-1714.8311293132037,2996.7667035197524,-630.2992802148788,1915.3989354453347,-348.3504035909049,2112.999552047057,-2277.2422435941016,-472.3282064436778,-603.6373241231512,2524.514538943742,-2980.543041522476,894.7363740405423,-94.46640445644621,123.57450084444218,-1255.9576845803572,1476.9723937583867,-712.501450370469,1325.6864073362383,-324.4460411215651,-3318.6708137515416,3706.190554898637,-2250.3677983195757,-879.8399444511974,-54.273335331781894,145.0001148135349,-300.99878456771694,1331.5009498395407,-2126.9959825824585,2525.877068177444,-486.08915623178723,439.27264156834417,4191.336662886305,-3402.284883670081,-931.5329962642977,2599.27236953469,-1083.9299266731548,-925.7940265425158,-1639.4674266376016,557.3882630184125,1020.6700964164053,-832.2496836602946,-552.8004423914571,3243.9050306218874,-2700.4979508197384,551.7305296615311,863.4899041573944,2278.87395293829,-2015.0519409686424,-376.8684569870724,-907.0581765869798,-1129.7855276121982,994.2631179704223,508.04275653616685,-1281.054255377897,2174.072129819,-2082.245113693426,1463.54103976368,-1252.0622248426757,-1069.9653269375822,-1196.9201672833683,387.4943727636065,-96.03178905941537,2296.6476897354514,-4734.817020982866,-24.775161012773097,6493.646810580876,-3322.247413988878,314.66604834201115,-1981.4377462247637,2004.3051956274517,394.1808972721226,481.85313725887187,-1150.7555030924307,1429.1472921578086,2109.299883917437,355.56600233806637,-1417.0931277081806,1100.8929147529316,-1222.701528729942,-2441.4805165009834,-422.06881677147715,3236.03370146822,-2285.8689616507645,2507.5659266191706,1616.3447316513475,-2480.833913984656,1503.0734273092344,1602.0916121551707,1750.2162734588578,-3232.9171512883604,-587.4717861453006,-315.35242490212477,-563.5311635589226,1146.6788213827547,272.5455925073033,-2184.8891863277777,76.87817696374233,3146.065836502199,-1355.4100232832122,-1699.5935376197801,1399.7118384248454,80.2780260717902,636.4599059676009,-1207.0582516285433,-49.15933322318065,-946.9753352010881,1510.4904355715842,-606.1646920017175,-997.0817473042616,295.77553917729085,499.24739561739517,-271.7991935648672,-2080.2898132036444,1128.0550405122358,281.40112948729944,-1335.029171975677,-91.92391287736368,700.2489241079561,971.5224083597725,-3510.77843955891,3112.243645729651,-2190.967624949252,-315.69805559629685,4082.7672787441884,-2020.3837054703256,1063.4168860613804,-2047.9847203227896,-323.81859095071917,408.5404249192497,-1574.70138825087,3238.8962370842246,-2462.9523552318205,1037.6965554811268,-2228.702453326724,4797.93294199885,-2722.4916432141904,2852.0679994430143,-1737.3225460249541,-540.5986137374082,1460.0344216632884,-93.64679333313046,-3393.254718475757,3979.350535936497,-2288.1562739868264,1214.5746885802384,583.0144723176668,-904.0387536160533,-1787.474299231834,584.7972039932129,-750.9869946184758,-510.7309405419674,4384.9018900319115,-3239.671662891755,-2482.413426328881,4690.399238157424,-2997.9439990305946,-889.563411934083,1880.7084795396286,-1897.888796368498,-3099.5436512539954,1318.5385798435339,-456.9185592497698,2554.81509432943,-275.0873594595205,-971.9700147675187,871.7810750593179,-652.5779734051888,-624.292336925951,-1161.972308013079,-628.4123867055528,3014.494475783677,-174.3904137000876,-322.2601816848175,-1605.3769054036266,3171.4270510521733,563.230855747332,-950.5680669547539,2322.8346076740672,-1729.8756934089968,1969.5136517568596,-2040.5460631128444,-1484.9093737971996,-1239.8934863861607,3152.5405364450276,-2125.841300706395,1376.9054577628524,153.90373862986522,-387.5056694907329,-2136.2373978289424,547.8611680910454,-1230.4808176666716,3643.472604278326,-1992.3101451262128,-923.7494803808034,153.26899784570787,1340.899503888693,2206.596999314363,-2419.435400513268,434.490941057258,-1083.4965712631144,252.79537858926918,-2457.0513010919967,2243.2722912830504,-1103.8156672483178,-983.0972597079558,-1985.5149179362963,2095.521353914957,-509.27920057584606,1231.58308615294,-1443.3184869762115,342.84457062267575,3104.578058089844,-3813.9212438101763,1544.2184177169622,1564.1662086053393,-1141.3958175231012,-904.9881606079433,-2358.6332246568277,2333.619963589987,-501.3146694476251,1850.768677682219,-1445.7606760920107,-1085.9228543221025,1125.0666423301986,-2854.8319454530756,1110.1650759618183,-440.0715308858751,417.77563903389887,-73.78023663673477,-927.8299086200682,2609.741106672997,-1316.1111267189422,-1122.1177193660008,1548.9114953535461,2401.6309129237143,-2251.5419881426583,1994.4590552337315,-2284.956630936788,-282.8048976458457,-564.0635173509659,-2053.4883101813607,1189.9834039157415,2593.2845012480093,-1181.3551672334165,-571.1729129189557,-1455.2988952669725,-545.0702771638043,1326.6353625175796,214.69009088501258,-1188.193515138199,210.23449791487357,3010.8176086074427,-2123.8638503712555,-634.1235988392234,-1609.4337352865662,478.74411472475504,860.4467053512503,-1963.3567402534704,-1032.2295139661883,1318.5060087255522,615.8886137176227,-2976.415201945208,1352.5958878588553,-1094.3538174470345,1602.3571758222604,-704.1100147056361,1521.5369192061999,-173.98856641973657,-3056.3718906466047,5893.806673308623,-580.9589008939288,-1701.4575537769101,2267.423329977477,-3270.3470301677166,1557.9996747437651,327.02212010051846,-3098.9499519281303,4772.394665167768,-3670.590737006647,1435.5899848542729,-2231.854498096216,-428.7132974904105,-158.65896783163328,1483.1659679763584,-1494.0883001747543,81.02328425072685,698.8993594573828,2233.7559165898233,-2456.0176206510932,-964.2234812823085,1950.8911808308353,-1498.2582104149967,4325.994772837014,1144.0930518054404,-3621.4996168025327,60.758613316500174,-724.2445841607192,4228.018010589879,314.3932687925069,777.6493134776151,-432.87767667325716,-2018.140127088197,137.480006617057,-1053.9960714616143,-82.94026274236575,4417.405298117441,-2273.164916904145,-3237.2342624468047,-170.25707956798863,591.7147075878482,3349.127238693233,-4366.299857243897,449.43183596066143,2346.412760191118,1056.0282006659984,-813.464584869814,-1622.668593210925,3658.6313111362024,-432.11727984102066,-2278.090651209288,-1762.380548966096,1171.2046211622596,3697.3743724501646,-1715.3757443686022,201.81141266708903,-2304.7230111572344,805.1866345377658,2290.7108568408876,-1095.1274456637739,846.7839191931594,255.95683903127087,656.3095105378593,-2181.3834474566315,1255.1496789724085,345.47553701278326,957.2452010675268,-854.4418590071723,-1155.9201167219464,-797.8567036069995,283.9330652138711,31.412505140959457,842.711127623441,390.7635101132458,357.1352273819066,-675.155937023253,90.01570031953034,-1720.7191673336254,150.90836642162913,3632.9083974255673,-337.98371007053197,-1139.674811042569,2073.0022969424017,-1336.0077551205277,-1594.958229626717,-1298.882157022075,2749.411251637861,245.9263936104096,-1608.5147603963903,3664.137691318285,-1076.9292061397712,-1857.0203909887123,2957.4390536432356,-4339.12570850566,2071.541894168443,374.0129385634434,-453.3722867113097,2311.327749877963,-931.4722196545953,-3096.688825162914,1354.252611438599,-1535.8361890822853,396.9245554751657,-1137.9947589105316,-305.4729926763737,637.7398514153801,1176.3604347007852,299.5696613894718,1107.3029552336548,-1428.3055638531441,-1159.3865872778322,-2103.316866906244,2004.5133104954564,-1743.0290325249402,-2140.3920196600507,532.509033340214,2993.00720523056,-1813.4502676570946,-768.8986127273773,2277.166862338464,-1724.6932839520384,-1874.0632510942614,-91.64877646088313,-139.56448943674528,29.844249514941776,288.6118762362804,-1390.7800626428216,206.90043128261266,1386.1470403167993,1933.4998450770984,430.2190648110963,-985.9786229258888,-4581.994227409532,3545.7276469075505,-813.9535538934641,-586.2563988093146,1108.9932087269472,1148.1655936636248,-1149.4926073011945,-487.6657975941523,1202.5336646085889,-641.0741817589985,-1191.6716858620298,1771.047259650373,232.72100014178193,-3061.8913302936908,2670.6056678590303,-786.4376864074594,1519.0644321687814,-790.7097822800688,3165.3192274213957,-1446.5514457169238,-995.8915919177385,1135.059422932195,992.5423778065003,-43.35174281029816,-2426.348858275306,-1085.8693381633184,1056.8749168291401,2024.5665696651552,-1818.822144450882,5386.354887346586,-3939.546676660562,-765.1274941296408,636.6175637975277,1587.8734934022193,-1145.3501069071208,-1018.9371307188813,500.89371352515576,35.77303780560485,-821.5718725308827,1506.3960743106406,-2118.261764695176,739.5674123962156,250.71622694639493,988.271321252685,-4436.991603865854,1261.2466072031934,2275.9906404557014,-2082.2109899202296,-93.17778415161334,1341.0654766181706,2698.9097354549217,922.9795139131269,-1722.697851445239,-1261.2129782605687,1126.7816124989085,11.07441904939751,-1903.0336778988142,-137.58078337580488,-475.6585126594791,1047.442347736753,1600.6687376663601,-2535.5015064027875,3465.0492653466813,-902.506300113857,26.792871463753656,-335.54928622639477,898.9410814014213,-826.8978141714629,1815.4665636641307,-3241.4304046745015,-379.0849073322556,3331.1949497755613,-44.18887880600545,842.6284690441868,-1630.7987308383463,-235.1686231284331,1548.4347220215952,-482.4005831610474,-2134.7877568217277,987.7737391126552,2335.038644009642,-242.32846216001317,-1025.3684289326798,1485.1583297476027,-1350.8825258123409,-672.7969563717181,2679.8816221325596,-1564.7455739318593,2138.9853806800784,-581.5192793530985,2294.200114154423,-1667.659794863922,1674.8604928421692,-632.5592742297913,-801.1008432978592,1315.074846999612,1073.1820668886096,-1739.9051764621067,167.90464521248893,-1411.8230547577248,-964.1667149612637,908.5482967512004,126.07072276858915,2908.8136524035776,-3959.8518696941082,320.7873873433536,111.25459516548861,1464.55339664408,1801.3495543999172,-3019.4618060300704,-1591.7327510410387,1523.468027230709,3183.1775429468353,-2114.234076063678,-247.51700441184425,-1528.1126402894777,1181.815208306245,-718.3036956368887,953.6931174343829,-853.1418772010676,781.2229917434702,1054.3387161633564,-1181.8313997202893,853.4179749272101,-559.3148346394622,4352.079749746286,-2804.471271956841,436.17515781121614,2729.066381660462,-1868.3654387707222,-1410.7694250030702,1986.3438621436487,-466.69784644833584,-543.205036226139,-1136.586671627698,1848.0183760965272,-2056.2360257159944,2554.164673525559,-476.2461441920939,253.61132255652888,2366.314224219406,-2088.2458701018577,201.34647259358383,240.1994571140434,131.47449868045388,1901.6847546555807,-1115.7695036886582,1068.8454950814187,-559.0822918642313,-886.0007368427428,-1569.8341065298134,-1125.3409983815563,1006.5315249698489,-1771.4597278634124,1706.3167381573253,-198.77773690295948,804.939880636833,-860.4931049788524,567.9850548478203,1055.1935034490507,245.765787481268,-1042.6253514109524,58.796442455402705,-690.9367673693242,-551.691555210717,1463.0206961969895,-2172.154107460601,-1391.4526979814138,1720.5120906767393,931.4551364456522,-196.66716568321374,-1912.5662425483658,786.9713849992372,1163.0525610769287,835.8146590137093,953.3283945498982,-1871.4379890840742,1224.8989275457716,-4378.873399829281,4540.194124962244,-731.636858554852,-732.591353487896,-2357.1539371788094,2618.2530989327915,-733.3077055932371,582.8276955590275,-6.348153764736598,968.0237438243895,-923.5972242183327,-918.9637784240152,3565.856811059785,-1163.4511013035326,-983.9390931830189,751.5749694751664,-822.4975250266923,891.267868260562,599.4831485464979,-1357.8061854769196,2338.2943079008696,-1861.2016445334916,572.4084255311238,-653.4360258290088,1079.597553817811,-93.33331277020922,-2828.677496194945,1406.9213910507824,-1077.3387534980204,1446.4123277360102,-539.0279329391684,1163.202942390095,556.2349697162585,-1178.7581873941074,-802.588280856814,1557.8353799991098,-481.7970409332437,252.92541303748177,-2491.8199630342788,2324.1660048398408,121.48330144701076,-701.6886963353357,-534.9958430737561,3453.3068583875784,528.066550489431,-511.50246924558394,-1026.2329270119533,1733.1565523024133,-541.3308135641737,-1824.8862341943739,4508.840340265911,-2692.1043230990977,-1468.6003361777996,2924.990950824672,-374.06700782110244,-353.44759005429995,-459.5562766165429,1682.9300784454963,-2743.0350983065623,3718.2327256124468,-2665.6887296509217,-1129.649727399044,-486.4445499106603,2445.2045460091567,-4063.8660216740227,5196.585448037735,1630.3777347952957,-1188.066690084991,813.2213900672275,-481.74163984000313,1818.4569481377132,-1780.1064319075347,342.6522244870217,327.494209217055,-537.4092030848999,1139.153474228072,-1313.3281142820645,728.9053606976476,-599.3262270606506,-562.9778696095739,1513.2589898600274,-3139.2140945856418,4193.315618481154,