,0,1,2,3,4,5,6,7,8,9,10,11,12,13,14,15,16,17,18,19,20,21,22,23,24,25,26,27,28,29,30,31,32,33,34,35,36,37,38,39,40,41,42,43,44,45,46,47,48,49,50,51,52,53,54,55,56,57,58,59,60,61,62,63,64,65,66,67,68,69,70,71,72,73,74,75,76,77,78,79,80,81,82,83,84,85,86,87,88,89,90,91,92,93,94,95,96,97,98,99,100,101,102,103,104,105,106,107,108,109,110,111,112,113,114,115,116,117,118,119,120,121,122,123,124,125,126,127,128,129,130,131,132,133,134,135,136,137,138,139,140,141,142,143,144,145,146,147,148,149,150,151,152,153,154,155,156,157,158,159,160,161,162,163,164,165,166,167,168,169,170,171,172,173,174,175,176,177,178,179,180,181,182,183,184,185,186,187,188,189,190,191,192,193,194,195,196,197,198,199,200,201,202,203,204,205,206,207,208,209,210,211,212,213,214,215,216,217,218,219,220,221,222,223,224,225,226,227,228,229,230,231,232,233,234,235,236,237,238,239,240,241,242,243,244,245,246,247,248,249,250,251,252,253,254,255,256,257,258,259,260,261,262,263,264,265,266,267,268,269,270,271,272,273,274,275,276,277,278,279,280,281,282,283,284,285,286,287,288,289,290,291,292,293,294,295,296,297,298,299,300,301,302,303,304,305,306,307,308,309,310,311,312,313,314,315,316,317,318,319,320,321,322,323,324,325,326,327,328,329,330,331,332,333,334,335,336,337,338,339,340,341,342,343,344,345,346,347,348,349,350,351,352,353,354,355,356,357,358,359,360,361,362,363,364,365,366,367,368,369,370,371,372,373,374,375,376,377,378,379,380,381,382,383,384,385,386,387,388,389,390,391,392,393,394,395,396,397,398,399,400,401,402,403,404,405,406,407,408,409,410,411,412,413,414,415,416,417,418,419,420,421,422,423,424,425,426,427,428,429,430,431,432,433,434,435,436,437,438,439,440,441,442,443,444,445,446,447,448,449,450,451,452,453,454,455,456,457,458,459,460,461,462,463,464,465,466,467,468,469,470,471,472,473,474,475,476,477,478,479,480,481,482,483,484,485,486,487,488,489,490,491,492,493,494,495,496,497,498,499,500,501,502,503,504,505,506,507,508,509,510,511,512,513,514,515,516,517,518,519,520,521,522,523,524,525,526,527,528,529,530,531,532,533,534,535,536,537,538,539,540,541,542,543,544,545,546,547,548,549,550,551,552,553,554,555,556,557,558,559,560,561,562,563,564,565,566,567,568,569,570,571,572,573,574,575,576,577,578,579,580,581,582,583,584,585,586,587,588,589,590,591,592,593,594,595,596,597,598,599,600,601,602,603,604,605,606,607,608,609,610,611,612,613,614,615,616,617,618,619,620,621,622,623,624,625,626,627,628,629,630,631,632,633,634,635,636,637,638,639,640,641,642,643,644,645,646,647,648,649,650,651,652,653,654,655,656,657,658,659,660,661,662,663,664,665,666,667,668,669,670,671,672,673,674,675,676,677,678,679,680,681,682,683,684,685,686,687,688,689,690,691,692,693,694,695,696,697,698,699,700,701,702,703,704,705,706,707,708,709,710,711,712,713,714,715,716,717,718,719,720,721,722,723,724,725,726,727,728,729,730,731,732,733,734,735,736,737,738,739,740,741,742,743,744,745,746,747,748,749,750,751,752,753,754,755,756,757,758,759,760,761,762,763,764,765,766,767,768,769,770,771,772,773,774,775,776,777,778,779,780,781,782,783,784,785,786,787,788,789,790,791,792,793,794,795,796,797,798,799,800,801,802,803,804,805,806,807,808,809,810,811,812,813,814,815,816,817,818,819,820,821,822,823,824,825,826,827,828,829,830,831,832,833,834,835,836,837,838,839,840,841,842,843,844,845,846,847,848,849,850,851,852,853,854,855,856,857,858,859,860,861,862,863,864,865,866,867,868,869,870,871,872,873,874,875,876,877,878,879,880,881,882,883,884,885,886,887,888,889,890,891,892,893,894,895,896,897,898,899,900,901,902,903,904,905,906,907,908,909,910,911,912,913,914,915,916,917,918,919,920,921,922,923,924,925,926,927,928,929,930,931,932,933,934,935,936,937,938,939,940,941,942,943,944,945,946,947,948,949,950,951,952,953,954,955,956,957,958,959,960,961,962,963,964,965,966,967,968,969,970,971,972,973,974,975,976,977,978,979,980,981,982,983,984,985,986,987,988,989,990,991,992,993,994,995,996,997,998,999,1000,1001,1002,1003,1004,1005,1006,1007,1008,1009,1010,1011,1012,1013,1014,1015,1016,1017,1018,1019,1020,1021,1022,1023,1024,1025,1026,1027,1028,1029,1030,1031,1032,1033,1034,1035,1036,1037,1038,1039,1040,1041,1042,1043,1044,1045,1046,1047,1048,1049,1050,1051,1052,1053,1054,1055,1056,1057,1058,1059,1060,1061,1062,1063,1064,1065,1066,1067,1068,1069,1070,1071,1072,1073,1074,1075,1076,1077,1078,1079,1080,1081,1082,1083,1084,1085,1086,1087,1088,1089,1090,1091,1092,1093,1094,1095,1096,1097,1098,1099,1100,1101,1102,1103,1104,1105,1106,1107,1108,1109,1110,1111,1112,1113,1114,1115,1116,1117,1118,1119,1120,1121,1122,1123,1124,1125,1126,1127,1128,1129,1130,1131,1132,1133,1134,1135,1136,1137,1138,1139,1140,1141,1142,1143,1144,1145,1146,1147,1148,1149,1150,1151,1152,1153,1154,1155,1156,1157,1158,1159,1160,1161,1162,1163,1164,1165,1166,1167,1168,1169,1170,1171,1172,1173,1174,1175,1176,1177,1178,1179,1180,1181,1182,1183,1184,1185,1186,1187,1188,1189,1190,1191,1192,1193,1194,1195,1196,1197,1198,1199,1200,1201,1202,1203,1204,1205,1206,1207,1208,1209,1210,1211,1212,1213,1214,1215,1216,1217,1218,1219,1220,1221,1222,1223,1224,1225,1226,1227,1228,1229,1230,1231,1232,1233,1234,1235,1236,1237,1238,1239,1240,1241,1242,1243,1244,1245,1246,1247,1248,1249,1250,1251,1252,1253,1254,1255,1256,1257,1258,1259,1260,1261,1262,1263,1264,1265,1266,1267,1268,1269,1270,1271,1272,1273,1274,1275,1276,1277,1278,1279,1280,1281,1282,1283,1284,1285,1286,1287,1288,1289,1290,1291,1292,1293,1294,1295,1296,1297,1298,1299,1300,1301,1302,1303,1304,1305,1306,1307,1308,1309,1310,1311,1312,1313,1314,1315,1316,1317,1318,1319,1320,1321,1322,1323,1324,1325,1326,1327,1328,1329,1330,1331,1332,1333,1334,1335,1336,1337,1338,1339,1340,1341,1342,1343,1344,1345,1346,1347,1348,1349,1350,1351,1352,1353,1354,1355,1356,1357,1358,1359,1360,1361,1362,1363,1364,1365,1366,1367,1368,1369,1370,1371,1372,1373,1374,1375,1376,1377,1378,1379,1380,1381,1382,1383,1384,1385,1386,1387,1388,1389,1390,1391,1392,1393,1394,1395,1396,1397,1398,1399,1400,1401,1402,1403,1404,1405,1406,1407,1408,1409,1410,1411,1412,1413,1414,1415,1416,1417,1418,1419,1420,1421,1422,1423,1424,1425,1426,1427,1428,1429,1430,1431,1432,1433,1434,1435,1436,1437,1438,1439,1440,1441,1442,1443,1444,1445,1446,1447,1448,1449,1450,1451,1452,1453,1454,1455,1456,1457,1458,1459,1460,1461,1462,1463,1464,1465,1466,1467,1468,1469,1470,1471,1472,1473,1474,1475,1476,1477,1478,1479,1480,1481,1482,1483,1484,1485,1486,1487,1488,1489,1490,1491,1492,1493,1494,1495,1496,1497,1498,1499,1500,1501,1502,1503,1504,1505,1506,1507,1508,1509,1510,1511,1512,1513,1514,1515,1516,1517,1518,1519,1520,1521,1522,1523,1524,1525,1526,1527,1528,1529,1530,1531,1532,1533,1534,1535,1536,1537,1538,1539,1540,1541,1542,1543,1544,1545,1546,1547,1548,1549,1550,1551,1552,1553,1554,1555,1556,1557,1558,1559,1560,1561,1562,1563,1564,1565,1566,1567,1568,1569,1570,1571,1572,1573,1574,1575,1576,1577,1578,1579,1580,1581,1582,1583,1584,1585,1586,1587,1588,1589,1590,1591,1592,1593,1594,1595,1596,1597,1598,1599,1600,1601,1602,1603,1604,1605,1606,1607,1608,1609,1610,1611,1612,1613,1614,1615,1616,1617,1618,1619,1620,1621,1622,1623,1624,1625,1626,1627,1628,1629,1630,1631,1632,1633,1634,1635,1636,1637,1638,1639,1640,1641,1642,1643,1644,1645,1646,1647,1648,1649,1650,1651,1652,1653,1654,1655,1656,1657,1658,1659,1660,1661,1662,1663,1664,1665,1666,1667,1668,1669,1670,1671,1672,1673,1674,1675,1676,1677,1678,1679,1680,1681,1682,1683,1684,1685,1686,1687,1688,1689,1690,1691,1692,1693,1694,1695,1696,1697,1698,1699,1700,1701,1702,1703,1704,1705,1706,1707,1708,1709,1710,1711,1712,1713,1714,1715,1716,1717,1718,1719,1720,1721,1722,1723,1724,1725,1726,1727,1728,1729,1730,1731,1732,1733,1734,1735,1736,1737,1738,1739,1740,1741,1742,1743,1744,1745,1746,1747,1748,1749,1750,1751,1752,1753,1754,1755,1756,1757,1758,1759,1760,1761,1762,1763,1764,1765,1766,1767,1768,1769,1770,1771,1772,1773,1774,1775,1776,1777,1778,1779,1780,1781,1782,1783,1784,1785,1786,1787,1788,1789,1790,1791,1792,1793,1794,1795,1796,1797,1798,1799,1800,1801,1802,1803,1804,1805,1806,1807,1808,1809,1810,1811,1812,1813,1814,1815,1816,1817,1818,1819,1820,1821,1822,1823,1824,1825,1826,1827,1828,1829,1830,1831,1832,1833,1834,1835,1836,1837,1838,1839,1840,1841,1842,1843,1844,1845,1846,1847,1848,1849,1850,1851,1852,1853,1854,1855,1856,1857,1858,1859,1860,1861,1862,1863,1864,1865,1866,1867,1868,1869,1870,1871,1872,1873,1874,1875,1876,1877,1878,1879,1880,1881,1882,1883,1884,1885,1886,1887,1888,1889,1890,1891,1892,1893,1894,1895,1896,1897,1898,1899,1900,1901,1902,1903,1904,1905,1906,1907,1908,1909,1910,1911,1912,1913,1914,1915,1916,1917,1918,1919,1920,1921,1922,1923,1924,1925,1926,1927,1928,1929,1930,1931,1932,1933,1934,1935,1936,1937,1938,1939,1940,1941,1942,1943,1944,1945,1946,1947,1948,1949,1950,1951,1952,1953,1954,1955,1956,1957,1958,1959,1960,1961,1962,1963,1964,1965,1966,1967,1968,1969,1970,1971,1972,1973,1974,1975,1976,1977,1978,1979,1980,1981,1982,1983,1984,1985,1986,1987,1988,1989,1990,1991,1992,1993,1994,1995,1996,1997,1998,1999,2000,2001,2002,2003,2004,2005,2006,2007,2008,2009,2010,2011,2012,2013,2014,2015,2016,2017,2018,2019,2020,2021,2022,2023,2024,2025,2026,2027,2028,2029,2030,2031,2032,2033,2034,2035,2036,2037,2038,2039,2040,2041,2042,2043,2044,2045,2046,2047,2048,2049,2050,2051,2052,2053,2054,2055,2056,2057,2058,2059,2060,2061,2062,2063,2064,2065,2066,2067,2068,2069,2070,2071,2072,2073,2074,2075,2076,2077,2078,2079,2080,2081,2082,2083,2084,2085,2086,2087,2088,2089,2090,2091,2092,2093,2094,2095,2096,2097,2098,2099,2100,2101,2102,2103,2104,2105,2106,2107,2108,2109,2110,2111,2112,2113,2114,2115,2116,2117,2118,2119,2120,2121,2122,2123,2124,2125,2126,2127,2128,2129,2130,2131,2132,2133,2134,2135,2136,2137,2138,2139,2140,2141,2142,2143,2144,2145,2146,2147,2148,2149,2150,2151,2152,2153,2154,2155,2156,2157,2158,2159,2160,2161,2162,2163,2164,2165,2166,2167,2168,2169,2170,2171,2172,2173,2174,2175,2176,2177,2178,2179,2180,2181,2182,2183,2184,2185,2186,2187,2188,2189,2190,2191,2192,2193,2194,2195,2196,2197,2198,2199,2200,2201,2202,2203,2204,2205,2206,2207,2208,2209,2210,2211,2212,2213,2214,2215,2216,2217,2218,2219,2220,2221,2222,2223,2224,2225,2226,2227,2228,2229,2230,2231,2232,2233,2234,2235,2236,2237,2238,2239,2240,2241,2242,2243,2244,2245,2246,2247,2248,2249,2250,2251,2252,2253,2254,2255,2256,2257,2258,2259,2260,2261,2262,2263,2264,2265,2266,2267,2268,2269,2270,2271,2272,2273,2274,2275,2276,2277,2278,2279,2280,2281,2282,2283,2284,2285,2286,2287,2288,2289,2290,2291,2292,2293,2294,2295,2296,2297,2298,2299,2300,2301,2302,2303,2304,2305,2306,2307,2308,2309,2310,2311,2312,2313,2314,2315,2316,2317,2318,2319,2320,2321,2322,2323,2324,2325,2326,2327,2328,2329,2330,2331,2332,2333,2334,2335,2336,2337,2338,2339,2340,2341,2342,2343,2344,2345,2346,2347,2348,2349,2350,2351,2352,2353,2354,2355,2356,2357,2358,2359,2360,2361,2362,2363,2364,2365,2366,2367,2368,2369,2370,2371,2372,2373,2374,2375,2376,2377,2378,2379,2380,2381,2382,2383,2384,2385,2386,2387,2388,2389,2390,2391,2392,2393,2394,2395,2396,2397,2398,2399,2400,2401,2402,2403,2404,2405,2406,2407,2408,2409,2410,2411,2412,2413,2414,2415,2416,2417,2418,2419,2420,2421,2422,2423,2424,2425,2426,2427,2428,2429,2430,2431,2432,2433,2434,2435,2436,2437,2438,2439,2440,2441,2442,2443,2444,2445,2446,2447,2448,2449,2450,2451,2452,2453,2454,2455,2456,2457,2458,2459,2460,2461,2462,2463,2464,2465,2466,2467,2468,2469,2470,2471,2472,2473,2474,2475,2476,2477,2478,2479,2480,2481,2482,2483,2484,2485,2486,2487,2488,2489,2490,2491,2492,2493,2494,2495,2496,2497,2498,2499,2500,2501,2502,2503,2504,2505,2506,2507,2508,2509,2510,2511,2512,2513,2514,2515,2516,2517,2518,2519,2520,2521,2522,2523,2524,2525,2526,2527,2528,2529,2530,2531,2532,2533,2534,2535,2536,2537,2538,2539,2540,2541,2542,2543,2544,2545,2546,2547,2548,2549,2550,2551,2552,2553,2554,2555,2556,2557,2558,2559,2560,2561,2562,2563,2564,2565,2566,2567,2568,2569,2570,2571,2572,2573,2574,2575,2576,2577,2578,2579,2580,2581,2582,2583,2584,2585,2586,2587,2588,2589,2590,2591,2592,2593,2594,2595,2596,2597,2598,2599,2600,2601,2602,2603,2604,2605,2606,2607,2608,2609,2610,2611,2612,2613,2614,2615,2616,2617,2618,2619,2620,2621,2622,2623,2624,2625,2626,2627,2628,2629,2630,2631,2632,2633,2634,2635,2636,2637,2638,2639,2640,2641,2642,2643,2644,2645,2646,2647,2648,2649,2650,2651,2652,2653,2654,2655,2656,2657,2658,2659,2660,2661,2662,2663,2664,2665,2666,2667,2668,2669,2670,2671,2672,2673,2674,2675,2676,2677,2678,2679,2680,2681,2682,2683,2684,2685,2686,2687,2688,2689,2690,2691,2692,2693,2694,2695,2696,2697,2698,2699,2700,2701,2702,2703,2704,2705,2706,2707,2708,2709,2710,2711,2712,2713,2714,2715,2716,2717,2718,2719,2720,2721,2722,2723,2724,2725,2726,2727,2728,2729,2730,2731,2732,2733,2734,2735,2736,2737,2738,2739,2740,2741,2742,2743,2744,2745,2746,2747,2748,2749,2750,2751,2752,2753,2754,2755,2756,2757,2758,2759,2760,2761,2762,2763,2764,2765,2766,2767,2768,2769,2770,2771,2772,2773,2774,2775,2776,2777,2778,2779,2780,2781,2782,2783,2784,2785,2786,2787,2788,2789,2790,2791,2792,2793,2794,2795,2796,2797,2798,2799,2800,2801,2802,2803,2804,2805,2806,2807,2808,2809,2810,2811,2812,2813,2814,2815,2816,2817,2818,2819,2820,2821,2822,2823,2824,2825,2826,2827,2828,2829,2830,2831,2832,2833,2834,2835,2836,2837,2838,2839,2840,2841,2842,2843,2844,2845,2846,2847,2848,2849,2850,2851,2852,2853,2854,2855,2856,2857,2858,2859,2860,2861,2862,2863,2864,2865,2866,2867,2868,2869,2870,2871,2872,2873,2874,2875,2876,2877,2878,2879,2880,2881,2882,2883,2884,2885,2886,2887,2888,2889,2890,2891,2892,2893,2894,2895,2896,2897,2898,2899,2900,2901,2902,2903,2904,2905,2906,2907,2908,2909,2910,2911,2912,2913,2914,2915,2916,2917,2918,2919,2920,2921,2922,2923,2924,2925,2926,2927,2928,2929,2930,2931,2932,2933,2934,2935,2936,2937,2938,2939,2940,2941,2942,2943,2944,2945,2946,2947,2948,2949,2950,2951,2952,2953,2954,2955,2956,2957,2958,2959,2960,2961,2962,2963,2964,2965,2966,2967,2968,2969,2970,2971,2972,2973,2974,2975,2976,2977,2978,2979,2980,2981,2982,2983,2984,2985,2986,2987,2988,2989,2990,2991,2992,2993,2994,2995,2996,2997,2998,2999,3000,3001,3002,3003,3004,3005,3006,3007,3008,3009,3010,3011,3012,3013,3014,3015,3016,3017,3018,3019,3020,3021,3022,3023,3024,3025,3026,3027,3028,3029,3030,3031,3032,3033,3034,3035,3036,3037,3038,3039,3040,3041,3042,3043,3044,3045,3046,3047,3048,3049,3050,3051,3052,3053,3054,3055,3056,3057,3058,3059,3060,3061,3062,3063,3064,3065,3066,3067,3068,3069,3070,3071,3072,3073,3074,3075,3076,3077,3078,3079,3080,3081,3082,3083,3084,3085,3086,3087,3088,3089,3090,3091,3092,3093,3094,3095,3096,3097,3098,3099,3100,3101,3102,3103,3104,3105,3106,3107,3108,3109,3110,3111,3112,3113,3114,3115,3116,3117,3118,3119,3120,3121,3122,3123,3124,3125,3126,3127,3128,3129,3130,3131,3132,3133,3134,3135,3136,3137,3138,3139,3140,3141,3142,3143,3144,3145,3146,3147,3148,3149,3150,3151,3152,3153,3154,3155,3156,3157,3158,3159,3160,3161,3162,3163,3164,3165,3166,3167,3168,3169,3170,3171,3172,3173,3174,3175,3176,3177,3178,3179,3180,3181,3182,3183,3184,3185,3186,3187,3188,3189,3190,3191,3192,3193,3194,3195,3196,3197,3198,3199,3200,3201,3202,3203,3204,3205,3206,3207,3208,3209,3210,3211,3212,3213,3214,3215,3216,3217,3218,3219,3220,3221,3222,3223,3224,3225,3226,3227,3228,3229,3230,3231,3232,3233,3234,3235,3236,3237,3238,3239,3240,3241,3242,3243,3244,3245,3246,3247,3248,3249,3250,3251,3252,3253,3254,3255,3256,3257,3258,3259,3260,3261,3262,3263,3264,3265,3266,3267,3268,3269,3270,3271,3272,3273,3274,3275,3276,3277,3278,3279,3280,3281,3282,3283,3284,3285,3286,3287,3288,3289,3290,3291,3292,3293,3294,3295,3296,3297,3298,3299,3300,3301,3302,3303,3304,3305,3306,3307,3308,3309,3310,3311,3312,3313,3314,3315,3316,3317,3318,3319,3320,3321,3322,3323,3324,3325,3326,3327,3328,3329,3330,3331,3332,3333,3334,3335,3336,3337,3338,3339,3340,3341,3342,3343,3344,3345,3346,3347,3348,3349,3350,3351,3352,3353,3354,3355,3356,3357,3358,3359,3360,3361,3362,3363,3364,3365,3366,3367,3368,3369,3370,3371,3372,3373,3374,3375,3376,3377,3378,3379,3380,3381,3382,3383,3384,3385,3386,3387,3388,3389,3390,3391,3392,3393,3394,3395,3396,3397,3398,3399,3400,3401,3402,3403,3404,3405,3406,3407,3408,3409,3410,3411,3412,3413,3414,3415,3416,3417,3418,3419,3420,3421,3422,3423,3424,3425,3426,3427,3428,3429,3430,3431,3432,3433,3434,3435,3436,3437,3438,3439,3440,3441,3442,3443,3444,3445,3446,3447,3448,3449,3450,3451,3452,3453,3454,3455,3456,3457,3458,3459,3460,3461,3462,3463,3464,3465,3466,3467,3468,3469,3470,3471,3472,3473,3474,3475,3476,3477,3478,3479,3480,3481,3482,3483,3484,3485,3486,3487,3488,3489,3490,3491,3492,3493,3494,3495,3496,3497,3498,3499,3500,3501,3502,3503,3504,3505,3506,3507,3508,3509,3510,3511,3512,3513,3514,3515,3516,3517,3518,3519,3520,3521,3522,3523,3524,3525,3526,3527,3528,3529,3530,3531,3532,3533,3534,3535,3536,3537,3538,3539,3540,3541,3542,3543,3544,3545,3546,3547,3548,3549,3550,3551,3552,3553,3554,3555,3556,3557,3558,3559,3560,3561,3562,3563,3564,3565,3566,3567,3568,3569,3570,3571,3572,3573,3574,3575,3576,3577,3578,3579,3580,3581,3582,3583,3584,3585,3586,3587,3588,3589,3590,3591,3592,3593,3594,3595,3596,3597,3598,3599,3600,3601,3602,3603,3604,3605,3606,3607,3608,3609,3610,3611,3612,3613,3614,3615,3616,3617,3618,3619,3620,3621,3622,3623,3624,3625,3626,3627,3628,3629,3630,3631,3632,3633,3634,3635,3636,3637,3638,3639,3640,3641,3642,3643,3644,3645,3646,3647,3648,3649,3650,3651,3652,3653,3654,3655,3656,3657,3658,3659,3660,3661,3662,3663,3664,3665,3666,3667,3668,3669,3670,3671,3672,3673,3674,3675,3676,3677,3678,3679,3680,3681,3682,3683,3684,3685,3686,3687,3688,3689,3690,3691,3692,3693,3694,3695,3696,3697,3698,3699,3700,3701,3702,3703,3704,3705,3706,3707,3708,3709,3710,3711,3712,3713,3714,3715,3716,3717,3718,3719,3720,3721,3722,3723,3724,3725,3726,3727,3728,3729,3730,3731,3732,3733,3734,3735,3736,3737,3738,3739,3740,3741,3742,3743,3744,3745,3746,3747,3748,3749,3750,3751,3752,3753,3754,3755,3756,3757,3758,3759,3760,3761,3762,3763,3764,3765,3766,3767,3768,3769,3770,3771,3772,3773,3774,3775,3776,3777,3778,3779,3780,3781,3782,3783,3784,3785,3786,3787,3788,3789,3790,3791,3792,3793,3794,3795,3796,3797,3798,3799,3800,3801,3802,3803,3804,3805,3806,3807,3808,3809,3810,3811,3812,3813,3814,3815,3816,3817,3818,3819,3820,3821,3822,3823,3824,3825,3826,3827,3828,3829,3830,3831,3832,3833,3834,3835,3836,3837,3838,3839,3840,3841,3842,3843,3844,3845,3846,3847,3848,3849,3850,3851,3852,3853,3854,3855,3856,3857,3858,3859,3860,3861,3862,3863,3864,3865,3866,3867,3868,3869,3870,3871,3872,3873,3874,3875,3876,3877,3878,3879,3880,3881,3882,3883,3884,3885,3886,3887,3888,3889,3890,3891,3892,3893,3894,3895,3896,3897,3898,3899,3900,3901,3902,3903,3904,3905,3906,3907,3908,3909,3910,3911,3912,3913,3914,3915,3916,3917,3918,3919,3920,3921,3922,3923,3924,3925,3926,3927,3928,3929,3930,3931,3932,3933,3934,3935,3936,3937,3938,3939,3940,3941,3942,3943,3944,3945,3946,3947,3948,3949,3950,3951,3952,3953,3954,3955,3956,3957,3958,3959,3960,3961,3962,3963,3964,3965,3966,3967,3968,3969,3970,3971,3972,3973,3974,3975,3976,3977,3978,3979,3980,3981,3982,3983,3984,3985,3986,3987,3988,3989,3990,3991,3992,3993,3994,3995,3996,3997,3998,3999,4000,4001,4002,4003,4004,4005,4006,4007,4008,4009,4010,4011,4012,4013,4014,4015,4016,4017,4018,4019,4020,4021,4022,4023,4024,4025,4026,4027,4028,4029,4030,4031,4032,4033,4034,4035,4036,4037,4038,4039,4040,4041,4042,4043,4044,4045,4046,4047,4048,4049,4050,4051,4052,4053,4054,4055,4056,4057,4058,4059,4060,4061,4062,4063,4064,4065,4066,4067,4068,4069,4070,4071,4072,4073,4074,4075,4076,4077,4078,4079,4080,4081,4082,4083,4084,4085,4086,4087,4088,4089,4090,4091,4092,4093,4094,4095,4096,4097,4098,4099,4100,4101,4102,4103,4104,4105,4106,4107,4108,4109,4110,4111,4112,4113,4114,4115,4116,4117,4118,4119,4120,4121,4122,4123,4124,4125,4126,4127,4128,4129,4130,4131,4132,4133,4134,4135,4136,4137,4138,4139,4140,4141,4142,4143,4144,4145,4146,4147,4148,4149,4150,4151,4152,4153,4154,4155,4156,4157,4158,4159,4160,4161,4162,4163,4164,4165,4166,4167,4168,4169,4170,4171,4172,4173,4174,4175,4176,4177,4178,4179,4180,4181,4182,4183,4184,4185,4186,4187,4188,4189,4190,4191,4192,4193,4194,4195,4196,4197,4198,4199,4200,4201,4202,4203,4204,4205,4206,4207,4208,4209,4210,4211,4212,4213,4214,4215,4216,4217,4218,4219,4220,4221,4222,4223,4224,4225,4226,4227,4228,4229,4230,4231,4232,4233,4234,4235,4236,4237,4238,4239,4240,4241,4242,4243,4244,4245,4246,4247,4248,4249,4250,4251,4252,4253,4254,4255,4256,4257,4258,4259,4260,4261,4262,4263,4264,4265,4266,4267,4268,4269,4270,4271,4272,4273,4274,4275,4276,4277,4278,4279,4280,4281,4282,4283,4284,4285,4286,4287,4288,4289,4290,4291,4292,4293,4294,4295,4296,4297,4298,4299,4300,4301,4302,4303,4304,4305,4306,4307,4308,4309,4310,4311,4312,4313,4314,4315,4316,4317,4318,4319,4320,4321,4322,4323,4324,4325,4326,4327,4328,4329,4330,4331,4332,4333,4334,4335,4336,4337,4338,4339,4340,4341,4342,4343,4344,4345,4346,4347,4348,4349,4350,4351,4352,4353,4354,4355,4356,4357,4358,4359,4360,4361,4362,4363,4364,4365,4366,4367,4368,4369,4370,4371,4372,4373,4374,4375,4376,4377,4378,4379,4380,4381,4382,4383,4384,4385,4386,4387,4388,4389,4390,4391,4392,4393,4394,4395,4396,4397,4398,4399,4400,4401,4402,4403,4404,4405,4406,4407,4408,4409,4410,4411,4412,4413,4414,4415,4416,4417,4418,4419,4420,4421,4422,4423,4424,4425,4426,4427,4428,4429,4430,4431,4432,4433,4434,4435,4436,4437,4438,4439,4440,4441,4442,4443,4444,4445,4446,4447,4448,4449,4450,4451,4452,4453,4454,4455,4456,4457,4458,4459,4460,4461,4462,4463,4464,4465,4466,4467,4468,4469,4470,4471,4472,4473,4474,4475,4476,4477,4478,4479,4480,4481,4482,4483,4484,4485,4486,4487,4488,4489,4490,4491,4492,4493,4494,4495,4496,4497,4498,4499,4500,4501,4502,4503,4504,4505,4506,4507,4508,4509,4510,4511,4512,4513,4514,4515,4516,4517,4518,4519,4520,4521,4522,4523,4524,4525,4526,4527,4528,4529,4530,4531,4532,4533,4534,4535,4536,4537,4538,4539,4540,4541,4542,4543,4544,4545,4546,4547,4548,4549,4550,4551,4552,4553,4554,4555,4556,4557,4558,4559,4560,4561,4562,4563,4564,4565,4566,4567,4568,4569,4570,4571,4572,4573,4574,4575,4576,4577,4578,4579,4580,4581,4582,4583,4584,4585,4586,4587,4588,4589,4590,4591,4592,4593,4594,4595,4596,4597,4598,4599,4600,4601,4602,4603,4604,4605,4606,4607,4608,4609,4610,4611,4612,4613,4614,4615,4616,4617,4618,4619,4620,4621,4622,4623,4624,4625,4626,4627,4628,4629,4630,4631,4632,4633,4634,4635,4636,4637,4638,4639,4640,4641,4642,4643,4644,4645,4646,4647,4648,4649,4650,4651,4652,4653,4654,4655,4656,4657,4658,4659,4660,4661,4662,4663,4664,4665,4666,4667,4668,4669,4670,4671,4672,4673,4674,4675,4676,4677,4678,4679,4680,4681,4682,4683,4684,4685,4686,4687,4688,4689,4690,4691,4692,4693,4694,4695,4696,4697,4698,4699,4700,4701,4702,4703,4704,4705,4706,4707,4708,4709,4710,4711,4712,4713,4714,4715,4716,4717,4718,4719,4720,4721,4722,4723,4724,4725,4726,4727,4728,4729,4730,4731,4732,4733,4734,4735,4736,4737,4738,4739,4740,4741,4742,4743,4744,4745,4746,4747,4748,4749,4750,4751,4752,4753,4754,4755,4756,4757,4758,4759,4760,4761,4762,4763,4764,4765,4766,4767,4768,4769,4770,4771,4772,4773,4774,4775,4776,4777,4778,4779,4780,4781,4782,4783,4784,4785,4786,4787,4788,4789,4790,4791,4792,4793,4794,4795,4796,4797,4798,4799,4800,4801,4802,4803,4804,4805,4806,4807,4808,4809,4810,4811,4812,4813,4814,4815,4816,4817,4818,4819,4820,4821,4822,4823,4824,4825,4826,4827,4828,4829,4830,4831,4832,4833,4834,4835,4836,4837,4838,4839,4840,4841,4842,4843,4844,4845,4846,4847,4848,4849,4850,4851,4852,4853,4854,4855,4856,4857,4858,4859,4860,4861,4862,4863,4864,4865,4866,4867,4868,4869,4870,4871,4872,4873,4874,4875,4876,4877,4878,4879,4880,4881,4882,4883,4884,4885,4886,4887,4888,4889,4890,4891,4892,4893,4894,4895,4896,4897,4898,4899,4900,4901,4902,4903,4904,4905,4906,4907,4908,4909,4910,4911,4912,4913,4914,4915,4916,4917,4918,4919,4920,4921,4922,4923,4924,4925,4926,4927,4928,4929,4930,4931,4932,4933,4934,4935,4936,4937,4938,4939,4940,4941,4942,4943,4944,4945,4946,4947,4948,4949,4950,4951,4952,4953,4954,4955,4956,4957,4958,4959,4960,4961,4962,4963,4964,4965,4966,4967,4968,4969,4970,4971,4972,4973,4974,4975,4976,4977,4978,4979,4980,4981,4982,4983,4984,4985,4986,4987,4988,4989,4990,4991,4992,4993,4994,4995,4996,4997,4998,4999,5000,5001,5002,5003,5004,5005,5006,5007,5008,5009,5010,5011,5012,5013,5014,5015,5016,5017,5018,5019,5020,5021,5022,5023,5024,5025,5026,5027,5028,5029,5030,5031,5032,5033,5034,5035,5036,5037,5038,5039,5040,5041,5042,5043,5044,5045,5046,5047,5048,5049,5050,5051,5052,5053,5054,5055,5056,5057,5058,5059,5060,5061,5062,5063,5064,5065,5066,5067,5068,5069,5070,5071,5072,5073,5074,5075,5076,5077,5078,5079,5080,5081,5082,5083,5084,5085,5086,5087,5088,5089,5090,5091,5092,5093,5094,5095,5096,5097,5098,5099,5100,5101,5102,5103,5104,5105,5106,5107,5108,5109,5110,5111,5112,5113,5114,5115,5116,5117,5118,5119,5120,5121,5122,5123,5124,5125,5126,5127,5128,5129,5130,5131,5132,5133,5134,5135,5136,5137,5138,5139,5140,5141,5142,5143,5144,5145,5146,5147,5148,5149,5150,5151,5152,5153,5154,5155,5156,5157,5158,5159,5160,5161,5162,5163,5164,5165,5166,5167,5168,5169,5170,5171,5172,5173,5174,5175,5176,5177,5178,5179,5180,5181,5182,5183,5184,5185,5186,5187,5188,5189,5190,5191,5192,5193,5194,5195,5196,5197,5198,5199,5200,5201,5202,5203,5204,5205,5206,5207,5208,5209,5210,5211,5212,5213,5214,5215,5216,5217,5218,5219,5220,5221,5222,5223,5224,5225,5226,5227,5228,5229,5230,5231,5232,5233,5234,5235,5236,5237,5238,5239,5240,5241,5242,5243,5244,5245,5246,5247,5248,5249,5250,5251,5252,5253,5254,5255,5256,5257,5258,5259,5260,5261,5262,5263,5264,5265,5266,5267,5268,5269,5270,5271,5272,5273,5274,5275,5276,5277,5278,5279,5280,5281,5282,5283,5284,5285,5286,5287,5288,5289,5290,5291,5292,5293,5294,5295,5296,5297,5298,5299,5300,5301,5302,5303,5304,5305,5306,5307,5308,5309,5310,5311,5312,5313,5314,5315,5316,5317,5318,5319,5320,5321,5322,5323,5324,5325,5326,5327,5328,5329,5330,5331,5332,5333,5334,5335,5336,5337,5338,5339,5340,5341,5342,5343,5344,5345,5346,5347,5348,5349,5350,5351,5352,5353,5354,5355,5356,5357,5358,5359,5360,5361,5362,5363,5364,5365,5366,5367,5368,5369,5370,5371,5372,5373,5374,5375,5376,5377,5378,5379,5380,5381,5382,5383,5384,5385,5386,5387,5388,5389,5390,5391,5392,5393,5394,5395,5396,5397,5398,5399,5400,5401,5402,5403,5404,5405,5406,5407,5408,5409,5410,5411,5412,5413,5414,5415,5416,5417,5418,5419,5420,5421,5422,5423,5424,5425,5426,5427,5428,5429,5430,5431,5432,5433,5434,5435,5436,5437,5438,5439,5440,5441,5442,5443,5444,5445,5446,5447,5448,5449,5450,5451,5452,5453,5454,5455,5456,5457,5458,5459,5460,5461,5462,5463,5464,5465,5466,5467,5468,5469,5470,5471,5472,5473,5474,5475,5476,5477,5478,5479,5480,5481,5482,5483,5484,5485,5486,5487,5488,5489,5490,5491,5492,5493,5494,5495,5496,5497,5498,5499,5500,5501,5502,5503,5504,5505,5506,5507,5508,5509,5510,5511,5512,5513,5514,5515,5516,5517,5518,5519,5520,5521,5522,5523,5524,5525,5526,5527,5528,5529,5530,5531,5532,5533,5534,5535,5536,5537,5538,5539,5540,5541,5542,5543,5544,5545,5546,5547,5548,5549,5550,5551,5552,5553,5554,5555,5556,5557,5558,5559,5560,5561,5562,5563,5564,5565,5566,5567,5568,5569,5570,5571,5572,5573,5574,5575,5576,5577,5578,5579,5580,5581,5582,5583,5584,5585,5586,5587,5588,5589,5590,5591,5592,5593,5594,5595,5596,5597,5598,5599,5600,5601,5602,5603,5604,5605,5606,5607,5608,5609,5610,5611,5612,5613,5614,5615,5616,5617,5618,5619,5620,5621,5622,5623,5624,5625,5626,5627,5628,5629,5630,5631,5632,5633,5634,5635,5636,5637,5638,5639,5640,5641,5642,5643,5644,5645,5646,5647,5648,5649,5650,5651,5652,5653,5654,5655,5656,5657,5658,5659,5660,5661,5662,5663,5664,5665,5666,5667,5668,5669,5670,5671,5672,5673,5674,5675,5676,5677,5678,5679,5680,5681,5682,5683,5684,5685,5686,5687,5688,5689,5690,5691,5692,5693,5694,5695,5696,5697,5698,5699,5700,5701,5702,5703,5704,5705,5706,5707,5708,5709,5710,5711,5712,5713,5714,5715,5716,5717,5718,5719,5720,5721,5722,5723,5724,5725,5726,5727,5728,5729,5730,5731,5732,5733,5734,5735,5736,5737,5738,5739,5740,5741,5742,5743,5744,5745,5746,5747,5748,5749,5750,5751,5752,5753,5754,5755,5756,5757,5758,5759,5760,5761,5762,5763,5764,5765,5766,5767,5768,5769,5770,5771,5772,5773,5774,5775,5776,5777,5778,5779,5780,5781,5782,5783,5784,5785,5786,5787,5788,5789,5790,5791,5792,5793,5794,5795,5796,5797,5798,5799,5800,5801,5802,5803,5804,5805,5806,5807,5808,5809,5810,5811,5812,5813,5814,5815,5816,5817,5818,5819,5820,5821,5822,5823,5824,5825,5826,5827,5828,5829,5830,5831,5832,5833,5834,5835,5836,5837,5838,5839,5840,5841,5842,5843,5844,5845,5846,5847,5848,5849,5850,5851,5852,5853,5854,5855,5856,5857,5858,5859,5860,5861,5862,5863,5864,5865,5866,5867,5868,5869,5870,5871,5872,5873,5874,5875,5876,5877,5878,5879,5880,5881,5882,5883,5884,5885,5886,5887,5888,5889,5890,5891,5892,5893,5894,5895,5896,5897,5898,5899,5900,5901,5902,5903,5904,5905,5906,5907,5908,5909,5910,5911,5912,5913,5914,5915,5916,5917,5918,5919,5920,5921,5922,5923,5924,5925,5926,5927,5928,5929,5930,5931,5932,5933,5934,5935,5936,5937,5938,5939,5940,5941,5942,5943,5944,5945,5946,5947,5948,5949,5950,5951,5952,5953,5954,5955,5956,5957,5958,5959,5960,5961,5962,5963,5964,5965,5966,5967,5968,5969,5970,5971,5972,5973,5974,5975,5976,5977,5978,5979,5980,5981,5982,5983,5984,5985,5986,5987,5988,5989,5990,5991,5992,5993,5994,5995,5996,5997,5998,5999,6000,6001,6002,6003,6004,6005,6006,6007,6008,6009,6010,6011,6012,6013,6014,6015,6016,6017,6018,6019,6020,6021,6022,6023,6024,6025,6026,6027,6028,6029,6030,6031,6032,6033,6034,6035,6036,6037,6038,6039,6040,6041,6042,6043,6044,6045,6046,6047,6048,6049,6050,6051,6052,6053,6054,6055,6056,6057,6058,6059,6060,6061,6062,6063,6064,6065,6066,6067,6068,6069,6070,6071,6072,6073,6074,6075,6076,6077,6078,6079,6080,6081,6082,6083,6084,6085,6086,6087,6088,6089,6090,6091,6092,6093,6094,6095,6096,6097,6098,6099,6100,6101,6102,6103,6104,6105,6106,6107,6108,6109,6110,6111,6112,6113,6114,6115,6116,6117,6118,6119,6120,6121,6122,6123,6124,6125,6126,6127,6128,6129,6130,6131,6132,6133,6134,6135,6136,6137,6138,6139,6140,6141,6142,6143,6144,6145,6146,6147,6148,6149,6150,6151,6152,6153,6154,6155,6156,6157,6158,6159,6160,6161,6162,6163,6164,6165,6166,6167,6168,6169,6170,6171,6172,6173,6174,6175,6176,6177,6178,6179,6180,6181,6182,6183,6184,6185,6186,6187,6188,6189,6190,6191,6192,6193,6194,6195,6196,6197,6198,6199,6200,6201,6202,6203,6204,6205,6206,6207,6208,6209,6210,6211,6212,6213,6214,6215,6216,6217,6218,6219,6220,6221,6222,6223,6224,6225,6226,6227,6228,6229,6230,6231,6232,6233,6234,6235,6236,6237,6238,6239,6240,6241,6242,6243,6244,6245,6246,6247,6248,6249,6250,6251,6252,6253,6254,6255,6256,6257,6258,6259,6260,6261,6262,6263,6264,6265,6266,6267,6268,6269,6270,6271,6272,6273,6274,6275,6276,6277,6278,6279,6280,6281,6282,6283,6284,6285,6286,6287,6288,6289,6290,6291,6292,6293,6294,6295,6296,6297,6298,6299,6300,6301,6302,6303,6304,6305,6306,6307,6308,6309,6310,6311,6312,6313,6314,6315,6316,6317,6318,6319,6320,6321,6322,6323,6324,6325,6326,6327,6328,6329,6330,6331,6332,6333,6334,6335,6336,6337,6338,6339,6340,6341,6342,6343,6344,6345,6346,6347,6348,6349,6350,6351,6352,6353,6354,6355,6356,6357,6358,6359,6360,6361,6362,6363,6364,6365,6366,6367,6368,6369,6370,6371,6372,6373,6374,6375,6376,6377,6378,6379,6380,6381,6382,6383,6384,6385,6386,6387,6388,6389,6390,6391,6392,6393,6394,6395,6396,6397,6398,6399,6400,6401,6402,6403,6404,6405,6406,6407,6408,6409,6410,6411,6412,6413,6414,6415,6416,6417,6418,6419,6420,6421,6422,6423,6424,6425,6426,6427,6428,6429,6430,6431,6432,6433,6434,6435,6436,6437,6438,6439,6440,6441,6442,6443,6444,6445,6446,6447,6448,6449,6450,6451,6452,6453,6454,6455,6456,6457,6458,6459,6460,6461,6462,6463,6464,6465,6466,6467,6468,6469,6470,6471,6472,6473,6474,6475,6476,6477,6478,6479,6480,6481,6482,6483,6484,6485,6486,6487,6488,6489,6490,6491,6492,6493,6494,6495,6496,6497,6498,6499,6500,6501,6502,6503,6504,6505,6506,6507,6508,6509,6510,6511,6512,6513,6514,6515,6516,6517,6518,6519,6520,6521,6522,6523,6524,6525,6526,6527,6528,6529,6530,6531,6532,6533,6534,6535,6536,6537,6538,6539,6540,6541,6542,6543,6544,6545,6546,6547,6548,6549,6550,6551,6552,6553,6554,6555,6556,6557,6558,6559,6560,6561,6562,6563,6564,6565,6566,6567,6568,6569,6570,6571,6572,6573,6574,6575,6576,6577,6578,6579,6580,6581,6582,6583,6584,6585,6586,6587,6588,6589,6590,6591,6592,6593,6594,6595,6596,6597,6598,6599,6600,6601,6602,6603,6604,6605,6606,6607,6608,6609,6610,6611,6612,6613,6614,6615,6616,6617,6618,6619,6620,6621,6622,6623,6624,6625,6626,6627,6628,6629,6630,6631,6632,6633,6634,6635,6636,6637,6638,6639,6640,6641,6642,6643,6644,6645,6646,6647,6648,6649,6650,6651,6652,6653,6654,6655,6656,6657,6658,6659,6660,6661,6662,6663,6664,6665,6666,6667,6668,6669,6670,6671,6672,6673,6674,6675,6676,6677,6678,6679,6680,6681,6682,6683,6684,6685,6686,6687,6688,6689,6690,6691,6692,6693,6694,6695,6696,6697,6698,6699,6700,6701,6702,6703,6704,6705,6706,6707,6708,6709,6710,6711,6712,6713,6714,6715,6716,6717,6718,6719,6720,6721,6722,6723,6724,6725,6726,6727,6728,6729,6730,6731,6732,6733,6734,6735,6736,6737,6738,6739,6740,6741,6742,6743,6744,6745,6746,6747,6748,6749,6750,6751,6752,6753,6754,6755,6756,6757,6758,6759,6760,6761,6762,6763,6764,6765,6766,6767,6768,6769,6770,6771,6772,6773,6774,6775,6776,6777,6778,6779,6780,6781,6782,6783,6784,6785,6786,6787,6788,6789,6790,6791,6792,6793,6794,6795,6796,6797,6798,6799,6800,6801,6802,6803,6804,6805,6806,6807,6808,6809,6810,6811,6812,6813,6814,6815,6816,6817,6818,6819,6820,6821,6822,6823,6824,6825,6826,6827,6828,6829,6830,6831,6832,6833,6834,6835,6836,6837,6838,6839,6840,6841,6842,6843,6844,6845,6846,6847,6848,6849,6850,6851,6852,6853,6854,6855,6856,6857,6858,6859,6860,6861,6862,6863,6864,6865,6866,6867,6868,6869,6870,6871,6872,6873,6874,6875,6876,6877,6878,6879,6880,6881,6882,6883,6884,6885,6886,6887,6888,6889,6890,6891,6892,6893,6894,6895,6896,6897,6898,6899,6900,6901,6902,6903,6904,6905,6906,6907,6908,6909,6910,6911,6912,6913,6914,6915,6916,6917,6918,6919,6920,6921,6922,6923,6924,6925,6926,6927,6928,6929,6930,6931,6932,6933,6934,6935,6936,6937,6938,6939,6940,6941,6942,6943,6944,6945,6946,6947,6948,6949,6950,6951,6952,6953,6954,6955,6956,6957,6958,6959,6960,6961,6962,6963,6964,6965,6966,6967,6968,6969,6970,6971,6972,6973,6974,6975,6976,6977,6978,6979,6980,6981,6982,6983,6984,6985,6986,6987,6988,6989,6990,6991,6992,6993,6994,6995,6996,6997,6998,6999,7000,7001,7002,7003,7004,7005,7006,7007,7008,7009,7010,7011,7012,7013,7014,7015,7016,7017,7018,7019,7020,7021,7022,7023,7024,7025,7026,7027,7028,7029,7030,7031,7032,7033,7034,7035,7036,7037,7038,7039,7040,7041,7042,7043,7044,7045,7046,7047,7048,7049,7050,7051,7052,7053,7054,7055,7056,7057,7058,7059,7060,7061,7062,7063,7064,7065,7066,7067,7068,7069,7070,7071,7072,7073,7074,7075,7076,7077,7078,7079,7080,7081,7082,7083,7084,7085,7086,7087,7088,7089,7090,7091,7092,7093,7094,7095,7096,7097,7098,7099,7100,7101,7102,7103,7104,7105,7106,7107,7108,7109,7110,7111,7112,7113,7114,7115,7116,7117,7118,7119,7120,7121,7122,7123,7124,7125,7126,7127,7128,7129,7130,7131,7132,7133,7134,7135,7136,7137,7138,7139,7140,7141,7142,7143,7144,7145,7146,7147,7148,7149,7150,7151,7152,7153,7154,7155,7156,7157,7158,7159,7160,7161,7162,7163,7164,7165,7166,7167,7168,7169,7170,7171,7172,7173,7174,7175,7176,7177,7178,7179,7180,7181,7182,7183,7184,7185,7186,7187,7188,7189,7190,7191,7192,7193,7194,7195,7196,7197,7198,7199,7200,7201,7202,7203,7204,7205,7206,7207,7208,7209,7210,7211,7212,7213,7214,7215,7216,7217,7218,7219,7220,7221,7222,7223,7224,7225,7226,7227,7228,7229,7230,7231,7232,7233,7234,7235,7236,7237,7238,7239,7240,7241,7242,7243,7244,7245,7246,7247,7248,7249,7250,7251,7252,7253,7254,7255,7256,7257,7258,7259,7260,7261,7262,7263,7264,7265,7266,7267,7268,7269,7270,7271,7272,7273,7274,7275,7276,7277,7278,7279,7280,7281,7282,7283,7284,7285,7286,7287,7288,7289,7290,7291,7292,7293,7294,7295,7296,7297,7298,7299,7300,7301,7302,7303,7304,7305,7306,7307,7308,7309,7310,7311,7312,7313,7314,7315,7316,7317,7318,7319,7320,7321,7322,7323,7324,7325,7326,7327,7328,7329,7330,7331,7332,7333,7334,7335,7336,7337,7338,7339,7340,7341,7342,7343,7344,7345,7346,7347,7348,7349,7350,7351,7352,7353,7354,7355,7356,7357,7358,7359,7360,7361,7362,7363,7364,7365,7366,7367,7368,7369,7370,7371,7372,7373,7374,7375,7376,7377,7378,7379,7380,7381,7382,7383,7384,7385,7386,7387,7388,7389,7390,7391,7392,7393,7394,7395,7396,7397,7398,7399,7400,7401,7402,7403,7404,7405,7406,7407,7408,7409,7410,7411,7412,7413,7414,7415,7416,7417,7418,7419,7420,7421,7422,7423,7424,7425,7426,7427,7428,7429,7430,7431,7432,7433,7434,7435,7436,7437,7438,7439,7440,7441,7442,7443,7444,7445,7446,7447,7448,7449,7450,7451,7452,7453,7454,7455,7456,7457,7458,7459,7460,7461,7462,7463,7464,7465,7466,7467,7468,7469,7470,7471,7472,7473,7474,7475,7476,7477,7478,7479,7480,7481,7482,7483,7484,7485,7486,7487,7488,7489,7490,7491,7492,7493,7494,7495,7496,7497,7498,7499,7500,7501,7502,7503,7504,7505
0,0.0044445743789847565,0.004054782851768588,-0.005717205228653158,-0.00017079044558899705,0.0008663562579983345,-0.005586672357542915,0.0011280518774596285,0.005681153969647861,-0.003015262286289128,0.007171986000538908,0.002378426877668113,-0.0064976260003998835,-0.0008327985820817609,0.005394398313833933,0.002255542096533684,0.000316205484498245,0.0036505453075735394,-0.004266492219336887,-0.0032179291484918148,0.006631267121506284,0.002579448010720593,-0.007943666314483165,0.005098449954063684,-0.0008015218734486284,0.0012813236457617982,-0.00010571048925117312,-0.0005715807535476876,0.0033498650490495817,-0.0018522561261685453,-0.00461472364291329,0.007084770402007854,0.00033763511936551376,-0.0003334599870133684,-0.0003858542946985391,0.005451689016239646,-0.004755425733806867,0.003203587563575236,0.0005917209365962344,0.0014328740102307325,-0.0005549563947014061,-0.007905235296385853,0.00841001649097237,-0.003556969995523649,-0.003246308378006279,0.007853426238967244,-0.0007569460237089144,-0.0022517309093953992,-0.002823612145536283,0.0018311151178038048,0.0004380645188675066,-0.0066032756767836955,0.006157018934219354,-0.004306146846456554,0.0009837841966002837,0.0009709471080277409,0.001911452624919958,0.0006260303760217337,0.00272506907502078,0.0022727346081605837,0.0011728055311196611,0.00261312585433975,-0.005065097480902482,0.0003404885372249229,0.008007526518379153,-0.003967984164154296,0.0026736736820929517,-0.0006288641943337836,-0.0017122102464301977,0.0008575399903871075,-0.001301258271128757,0.007157758290139646,-0.007702151861708442,0.002194841390625479,-0.0010650064988567143,-0.0002383235930675804,0.004953756812040722,-0.004228829246940243,0.0035830912697025663,-0.004876786538627673,-0.0024080917240330516,-0.0019509207235292635,0.00693581325237281,-0.0041311649553935435,-0.002014003147960868,-0.004393404193684023,0.0038683195065177646,0.0020317706291218913,0.0001535114878669229,-0.003153701174489146,-0.0018107818785800295,-0.00018229954932375787,0.0020331894118116724,4.384182280996706e-06,0.0003413312682967694,-0.0013077818636639893,0.004972060197114822,-0.0025544600955224313,-0.008635125067909906,0.008047699296044732,0.0023196635380648457,-0.0016573358517510991,0.004781998260163687,-0.004832306335511505,0.0021784805654056754,0.003880642173394323,0.00025720624563092153,-0.006011153820983637,0.00601431451039264,0.0005270583578599991,0.00196998637415423,-0.0049508469782607095,0.00021720486377569076,0.0009317520050816091,0.0025935045085204405,0.0032177231789921427,-0.0035065813591897755,0.003639125283162657,0.0031800950922141764,-0.0030987372610174198,-0.0007412640670135647,0.00044757079520543156,0.003097316361411669,0.00014816093108500013,0.002869964032259612,0.0038068011584894102,-0.005900977782571533,0.0013614955108613269,0.004233909710619642,-0.004612667090224905,0.003007449097945909,-0.00043966713391820197,-0.0016103020459751164,-0.00025278968555901706,-0.000921125832048272,0.0016891981577963967,-0.005588158935487705,0.0037790399335163806,-0.001525495958854683,0.0013485368306365025,0.0006785056643112777,-0.0029845273965964864,-0.0037965984982015564,0.0017778617136037253,0.003787092144583259,0.0009148652928097226,0.0012717025881963822,-0.002243243283385855,-0.00026420167511168806,0.005932528601740214,-0.0016900495036728008,0.004124040225788687,-0.0051603327342423086,0.0040714887421979,-0.004826255376161405,0.003567006640793569,-3.434331966767519e-05,-0.00490722722043455,0.005671264004479305,-0.0003006921388309169,-0.0054626813638500695,-0.003909384683018885,0.007718700378573239,-0.0015383912066522414,-0.008363428281936309,0.0032065244534918956,0.004191343923002664,-0.008184854654510713,0.003116015781900843,-0.0008649763749522132,-0.0021127662260159285,0.002674944708317483,0.0018408626826979205,0.002909095484413264,0.0020042314615184033,-0.004823912689922457,0.004524469234214675,-0.006972807936217017,0.004249468198508881,-0.0027490138202789583,0.0022418804229548924,-0.0011796960774831126,-0.0016161859322573198,0.006003159501231912,-0.005652739080508539,-0.003628051172750345,0.009183031694108668,0.0010047373984492895,-0.001283364773264517,-0.0031064935260940807,-0.0003766219999427261,-0.0020787584455572022,0.0023312977419395766,-0.002218778094713519,0.006549720952725515,-0.004800404980057259,0.001043870313953233,0.0054069545088451494,0.004230065643472163,-0.0038724377781723957,-0.0007366483271261645,0.0016707270914173705,-0.00011339113612168387,0.0010033277686248999,0.0034619239396855316,0.000856429702587512,-0.0027236037815453764,-0.00019834966219701514,-0.0012041190608603218,0.00022835196887723653,0.004337517956146321,-0.0011313786014085806,-0.0036932801429195,0.004208402501571731,0.0010958820665164651,-0.0027123531035997766,0.0017247392231031936,-0.0018800827044509053,0.00035170335035415723,-0.001782032140988691,-0.00032839504911566454,0.0047899241550126825,-0.0007938223586078042,-0.003687688328488772,-0.0021703028667406678,0.004670533243427623,0.0027265785016841655,-0.004989075149058001,-0.002077842280875834,-0.0012328919966479702,0.003770519622091054,0.0019082279060139362,-0.010085098379656026,0.010957761154891294,-0.0019043632275141673,-0.005313684387211331,0.0009375292559592402,-0.0017294177994316778,0.004468494448235538,0.0016986746395245538,-0.002605075555167351,-0.0023602107216703166,0.0001591034185906817,0.0078010575096809235,-0.0024340485752083916,-0.007000340536406476,0.004171717904373793,0.003038854778574068,0.003517872624571312,-0.008231782353526684,0.0011550403051543096,0.0025355545198385986,0.0015688036039949815,-0.005602488054205035,0.0016805232488886588,0.003750723605597222,-0.0020495532807446445,0.0004325874553625977,-0.0016963062274187612,0.004810131320843618,0.00018291935835495514,0.0014399384584318877,0.0002660893406855697,0.001701928217897143,0.004001491033988763,0.0028058288325324915,-0.008801774286201968,0.0010670359218914159,0.002129756118936757,0.00019973431561068588,0.0026537231017252703,0.004382496114162166,-0.005985918648164164,-0.0009328623287044556,0.003995782815720617,0.00014965434414582966,0.0038809264711354573,-0.0015570534892196625,0.0007836992524079649,0.002719096589000388,-0.0017258466315713521,0.004197804696269744,-0.003035729174334027,0.0033683577915863527,-0.007086683309763546,0.004036187028522648,-0.0007730978828255765,0.000504729481433511,-0.002881418240708586,0.0029491016643794165,-0.005048620712085578,0.0054700036779501615,-0.0005188965681826698,-0.00040907895736993263,0.006650850983964944,-0.004387761311270225,-0.0018299847380999104,-0.0006249176140146851,0.0016869801368025019,-0.0014582973701870706,-0.00014397823845928076,-0.0023592268140883413,-0.0033191917222719415,-0.000749198936454036,-0.002354955268884401,0.000930652605141675,0.0036574830844056465,-0.003076452200866079,0.0042081558188647615,-0.0049609992374742996,0.0026833786054846365,-0.003753840227595816,0.002143697302665451,-0.001761333526547847,-0.00019417062972484689,-0.002398446394600939,0.0017352708464719925,-0.0004998596631377458,-0.0024481463716536198,-0.00459457622578565,0.006256517887338536,-0.0032453666847831477,-0.002673348443868016,-0.0027755881945541005,0.00130803706969338,0.0034025877909734533,-0.0006316831305701636,0.0020849603680318653,-0.0032002137367380867,0.0037678809800346506,0.0010807295652688945,-0.0010258779466505964,-0.0018978939559605918,0.005117997068119237,-0.002815977790672809,0.0018790609687291745,-0.0011754516093156015,-0.0010820288882943355,0.002316117407829414,-0.0007522385725119314,-0.006221362535652926,0.00023322925105909474,0.001638590550250671,-0.003062065075608653,-0.002931217035002209,-0.0037871707872174608,0.0037334693671103487,0.001198198045828383,-0.008478461802817045,0.0015158837917266473,0.006010858717266191,-3.56946883783784e-05,0.0020264343162621186,-0.004145399727859805,0.006867716522781473,-0.007398221741968676,-0.00630767229987979,0.004299389030231126,0.005611944620351376,-0.004071483563318657,-0.002225996522469936,-0.0009061234212361102,-0.0007505104747101529,-0.0012011502110149614,-0.003903378138199538,0.007648212478952303,-0.0027557452076245837,0.000874462043235118,-0.008748129190395285,0.003457593750862612,0.004843479527111256,-0.003222737218489201,-0.003377874419797799,0.004091938510175909,0.001055126659734426,-0.0023201606904012656,0.0017027955609677382,0.004435417698163679,-0.004293956741247137,-0.0034427861588766646,0.007010901245109275,-0.0005038155683223533,0.003692814171395437,-0.0050530156509149445,-0.005368165486993277,0.008509257698232202,0.0014320785080070121,-0.0022929993834426452,0.0009867725812768755,0.0032928851120994952,-0.0047964331526272625,-0.003743036145559966,-0.000875334314478397,-0.0038748762508361606,0.010596747488860471,-0.0033268258952449115,-4.220594316370195e-05,0.004595873209671958,-0.0026260259972810318,-9.390027350946983e-05,0.0003999452687241588,-0.004524676131696991,0.009644950220107314,-0.0033049307217617196,-0.0035221617101177712,0.0064975142024421085,0.0013453188631234736,0.00018369339985199515,0.0017614585538930044,-0.0011687587216705824,-0.0014174398395859278,7.256865382692199e-05,0.0005490857455381454,-0.0010578004678627958,0.00207578594193854,0.0003381984004992277,-0.005235816802458326,0.005763228220502756,-0.0029083077598692658,0.0008425292649742257,-0.005065646407612205,0.0033107463856913554,-0.006502160766903023,0.005109537672668205,0.0018860529070074325,0.006046032709487659,-0.003522634051199335,0.00021880115565416352,0.0005761084854099613,0.0018975878608523717,-0.000415758882512134,0.0030203229645761344,-0.002349480849398422,0.0006864287044362144,-0.0007712541767016859,-0.0018495137365442623,-0.0033782367954810154,0.0039646455524494405,-0.0006004039794273473,-0.004299773789267338,-0.001178808365123551,0.0047342393460421415,-0.0035195083137809836,-0.0031664614659628683,-0.002792967664867041,0.003977310681307116,-0.004452413489501197,0.0038166584842132343,-0.0007673604692145111,-0.0023869256488188934,0.005587285848159084,-0.004755566174988168,-0.0020100952901303164,0.0019488229937273862,0.004199732636162855,-0.0039816037771758265,0.0014857544452726607,-0.0003305127351898116,0.0031193067396384625,0.004415265045246315,0.0005478352651661692,0.0022775459910480385,-0.0012094916072677116,0.0024654768485514473,-0.005527581301502365,0.0007339283592993965,-0.0016395450420266786,-0.003696112376377498,0.005032136332096672,0.003670909363444421,-0.0002865927711204173,0.00025264443025684497,-0.004590939268119403,0.0008392738438599566,0.003059875708748399,-0.00269563944786705,-0.00548929003982785,0.007440592287512043,-0.002046330510876781,-0.0031859448356654062,0.003168703938353035,-0.0007311745652385536,0.0033525176779546184,-0.010459315931559562,0.0007589875578073507,0.00015257198397173704,-0.0010698983061596071,0.009272201304723466,-0.005834943572926895,0.0016553856811842987,-0.002901525085986323,0.004094232839521057,-0.0020475679243792096,-0.0008316569718111896,0.008096207186053415,-0.0037572106991097367,0.00502523504679591,-0.0010467307669384592,-0.0018570908907076945,-0.007098329707753107,0.0008400291273076746,0.008673213005719044,-0.004354430694624039,0.0037240108964094643,-0.003564098768356894,-0.002071394357086359,-0.00597952199673416,0.0010289779570715125,-0.0006145677616865086,-0.0026180183583053448,0.00829865291286434,-0.002605404438765992,-0.0034009769830835846,-0.0018140486359684207,0.0016146748751186698,-0.0024070748109954057,0.008467503173750397,-0.004879453816892668,-0.00126257232287718,0.0003204677249906128,-0.0010470802228389818,-0.0015928071807574987,0.005151240271031005,0.003535025708840288,-0.005738220549391913,0.008133929084812338,-0.0017730756452498087,0.001812581183011501,-0.007975705053758424,0.00121616535694875,0.00825501764065137,-0.006937243567935322,0.003364341010095082,0.003863547071562755,0.0067535385319947485,-0.007818363717681331,0.0071412964177836645,-0.002009593169900397,-0.00012409678715085025,-0.0009588203760293342,-0.0027636783407381403,-0.00037238723241606763,-0.0035010836768099417,0.0026545233589539813,0.0017368309992498699,-0.0008671619810506486,0.005898464155965871,-0.004744369576527874,0.0006231757585500492,0.003547409018630474,-0.002238434065427452,0.0022812837517952405,0.00030597766911907506,0.0005530494782782753,0.002542999586550893,-0.0023913540495106834,-0.0007378577080838773,-0.0032424841535753494,0.0037640228966697104,-0.003028426968609772,-0.001866405434081208,-0.0027029360232983836,0.007199838999936897,-0.0040463994576444935,-4.467871044957411e-05,0.005550784343661443,-0.000832391208351737,-0.0009751932477346004,0.0039358270905203675,0.0024917565945431984,-0.0016753944088251068,-0.004445588828811923,-0.00099808751425932,0.0029540356159581203,8.38964138408653e-05,-0.006007736179607353,-0.004035527252860564,0.00709347252052752,0.0017156660143680066,-0.005249236789375774,0.0008939893776197274,0.0024803596402344793,-0.0003033043577236079,0.005832378473537342,-0.006742951397588999,-0.0038311217607124937,-0.0031028956621687487,0.00678591731095076,-0.005786579239076336,0.0032555041890514995,-0.004861783451261605,0.0028093126423806565,0.0009561517244422535,-0.001430544604583835,-0.0013639039003757753,0.0031177897792742724,-0.005341993300849482,0.0016366072742826474,0.0016554911545764923,-0.0033930444053292073,-0.00041690323275559425,-0.0007285604745017908,0.004761429579451347,-0.006732880109540687,-0.0015909405079816078,0.0023404705963860546,0.005135781681503505,-0.0058308197477323,0.00421588617665928,-0.002005316477151906,0.005064765828820203,-0.003580629206359082,-0.0032019108583176983,-3.081968320088384e-05,-0.002141123815222636,-0.0023888856391682304,0.0034416857801220406,0.0021110729985652087,-0.000939688767269391,-0.001297039074044364,0.0031212782639810366,0.0004710512641118661,0.002827594168954807,-7.073975428812635e-05,-0.002633205882898933,0.005144694295797502,-0.0023682290307095893,-0.003581365646660557,0.004107321450469985,-0.003164982140733507,0.0016940964456836035,0.003568319767574528,-0.0025150983227555557,-0.0046535219545027935,0.003368515707575663,0.0001832208956750664,0.002422935351730004,-0.0008265151782067708,-0.0018901427757552867,0.003702322896892739,-0.002819659968288883,0.002216020598699764,-0.0035217204986012773,-0.0024547197337721886,0.0009064063597740945,-0.0037366407626727273,0.001376042894034664,0.004237237903352355,0.005352654173065419,-0.005432074381776397,6.354015206776871e-05,0.00020444564189643015,0.0038205278319315087,-0.004908752774936937,0.007064044282904315,-0.005212880470442411,-0.0010604884091838806,-0.0012937046834619243,0.002518818521639728,0.006468326185763539,-0.004416306447222673,-0.003467443672677942,-0.0007339656322247651,0.00039883384194611815,0.0008576767121770069,-8.119906370887935e-05,-0.0018539517554041118,-0.00235197230298469,0.003392687853361341,0.002025815750011602,-0.00714885943766318,0.005606024281807492,0.0015908942281948303,-0.0010785663399594642,0.003969791003834775,-0.002052407280268406,-0.0004000156632414405,0.002789144116312734,-0.002505535763177754,0.0012088846041206,-0.0035860076532257556,0.004501087643536242,-0.0042373639276127115,0.005649549585594736,0.001870233235794713,0.0034940305355304433,-0.0011825552297421848,-0.0001765247475670556,-0.0031320506641351028,-0.0028831915842331803,-0.005717212708568107,0.0005100913619764517,0.007311205746010283,-0.0028181895991462964,8.564239341535703e-05,0.0009130201878371976,-0.005687228726249015,0.0011255506831552517,0.0005901991390394626,-0.006708583617174808,0.011297270636543432,-0.0032078444678412758,-0.0028914130979154793,0.0060976959631366436,-0.006972346818213376,0.000856572445442909,0.009543761838507737,-0.008346203245449216,-0.0006618535943268061,7.534107813469908e-05,-0.0003073993225448888,0.004838239045047693,-0.0019884322557199687,-0.002208007996999754,0.004215777069636391,6.422931299664814e-05,0.0005935066975729362,-0.00090641296901341,0.00017406972452854385,-0.002678528712938788,0.00526259761875557,-0.009014867323343745,0.004156538406384572,-0.00043312627329876344,-0.0008895964938152804,-0.0035276277471626228,0.00428398041275503,0.001981210589242712,0.0006695048630265344,0.00223209213386968,0.0006897595924639772,-0.003712605098675592,-0.002525272465962688,0.002743255954731096,-0.005448935697578755,0.0010639041625152856,0.0015765359089610247,-0.0005986339808708601,-0.00345344039224819,0.008417889526385948,-0.005163405109905924,0.003699926139299631,0.002673114445722384,0.0020525949506415807,-0.0011053049931057572,-0.0029932645226701964,-0.005148393700875454,0.004217775719656007,0.0066462154313468,-0.006217833103889527,-0.003305851572932074,0.0016686158785282849,0.0021470545100157013,0.0007626033123745142,-0.0013866428250769425,-0.002477427631736542,0.002263228159365644,0.002421509956665919,0.0009088465336804416,0.000791048339521683,-0.0016016830287314948,-0.001461022725680835,0.006541199062686015,-0.003015418762311003,0.00048564121897077845,-0.00015900957155601096,-0.0002692228901444205,-0.004760851368025198,0.002570249689786973,-0.0006974674201428717,-0.005120978407461025,0.004603180202263298,0.0006970478879289535,-0.0008570465360811888,0.0009769061327423458,0.004953954602379877,-0.008387361492949596,0.0021404490783508293,0.005293816819927364,-0.0008365192576331313,-0.0022497578579864816,0.0010055499069863234,-0.00022895958658395138,-0.008055342481113953,0.004925000812862398,0.0024630203811078066,-0.0007925861667526036,-0.000604261829585493,0.0028799041667249585,-0.000587471466693381,-0.003365105674467035,0.0005559081224924766,0.0009131682608842045,0.0012418798971806358,-0.007274077482480076,0.0021505408432976342,0.0049595982319097735,-0.007043213109993609,0.0014120029465355703,0.007025357452360792,-0.0040854110236475585,-0.0015043559080644936,0.007941192103604517,-0.007041970861597688,-0.0003541302091868714,-0.0023201162725521285,0.0016622366393289922,0.0023698391354978346,0.0002995441762207204,-0.004003480651785772,0.0036830842592147526,-0.002053922110836609,0.0031229671784123924,-0.002954629879988142,-0.0014196756380172144,0.0027835167118673903,-0.006007935735914721,-0.003927540147502285,0.008254396942577555,0.0007232525254709656,-0.0006878739903495082,0.004285600677139016,-0.001405351025961195,-0.005056334789736191,0.003960791776554003,-0.005512653313770218,0.005022105648013282,-0.00014539176784225089,-0.0016031514474242339,0.0024162345987084996,-0.001956672596320269,0.002496725835438805,-0.0027233897475415557,-0.001460570656209157,0.0038517507300578294,-0.00598987835334745,0.006705176566005986,-0.0006706843794267746,-0.0004674595413917852,-0.0028451530151551566,-0.00029840686369235876,0.0010956452682003906,-0.0008075620088068314,0.005018332858844574,0.0004780571618167204,-0.00047383206288935875,-0.002174388250350285,-0.002948009820977149,0.001102233038778255,0.003856258151580565,-0.00286352772083129,-0.004270535204046915,0.006166361553236133,-0.003948165072794938,-0.0030122789077485857,-0.0022849831313728414,0.0031735198285299093,0.0028411708083317666,-0.006691043354575742,0.005450291295260343,-0.001314894774021431,0.00014280265039934653,0.006161605815966118,-0.0007550883890300026,-0.0038904437303820035,0.003544447852785925,-0.0015475001140926486,0.0010972780947797573,-0.00013247218701541803,-0.0022710145576819722,0.001888556864842681,0.0024514945592331067,-0.00792036772228872,0.00516747245757979,0.000503833193626873,-0.004200834275521888,0.0010740798588487052,-0.0009986571453532481,0.0024487803244734015,-0.003936172767614533,0.0002290019222906059,0.00480590896014269,-0.0025896576834451924,0.006230612833591906,0.004007845203731534,-0.005906611261963215,-0.0013637917974703361,-0.00265520816850886,0.0003740859740403818,-0.003872972145285035,0.007138576186788304,0.001499259293138751,0.0005691896955861176,-0.0026808580198115417,0.0025940156516140395,0.0033687993523095648,-0.0006431922776805802,-0.0011290784897503667,0.005789513965217327,-0.004309464807858321,-0.0035014066878474794,0.0014820920870596912,0.005327570242695795,-0.006034931924469253,-0.003857892234149743,-0.00042766435958077544,0.006035101728527963,-0.003443789761545343,0.004392887346719846,-0.0030879089839594615,0.0013976484831443748,-0.0003491418210824057,-0.005732933947757637,0.0012128740830527173,-0.0011568531229099806,-0.0029787467784601895,0.0015974218651915223,-0.0039283604339308996,0.002108336565793327,0.003801035955302212,-8.741301121416183e-05,0.004788048856455068,-0.010582521769356314,0.0040333806492478495,0.0013641607396906652,-0.0007925008660538828,0.002229161793882074,-0.0037476068853135314,0.007071709952908054,-0.0021528817467048544,-0.00231457397127635,0.004708926512594845,-0.002540441923008746,0.005978693745262904,-0.006457448238613384,0.0008174153743795517,0.003788589505061222,-0.007350090447206073,-0.001004971254801262,0.002425630750401319,-0.0015590134824723198,0.0038411443065658386,-0.004859305448993627,0.002862018615549823,0.0019018015684650824,-0.0033460256404670673,0.004930607977404811,-0.0017187927854914909,-0.001210181266874771,0.005702632932826748,-0.007475170933177967,0.0024892200350120765,0.004457728365289876,-0.0050525357760773425,0.0035513831997698608,6.814551010942554e-05,0.001887839612009232,-0.0039564561583728085,0.0066410030548398865,-0.005673074699106657,-8.644274385577229e-05,0.0024962997466795385,-0.00041276069954786595,-0.001946604530906866,0.0009384785379535058,-0.004538779453931313,0.0012063853881846256,-0.0038934999797424763,-6.624675817762847e-05,0.0039325004085789626,0.0036142504841866546,-0.0013404334757989589,0.0016427985653451969,-0.003572640772737926,0.00202448714434912,0.00024100710212823946,-0.003324713137988843,0.009357908940487096,-0.008627722729711256,-0.0009717704314503406,0.007555837607417014,-0.002609679253112671,-0.0012566994122420489,0.0009469780526194834,-0.0034146692407347147,0.0041747934155869386,-0.004893893781316241,0.002659252289759202,0.0029775776942989433,-0.0001382859396910341,-0.0028829018058992625,-0.0021494824641868845,0.004025906701372752,0.0009254060069200452,-0.004833123512479138,-0.005340668280130619,-0.0008280649945663192,-0.0012496307917637104,0.004207744662548033,0.002409683344528736,-0.0007899813647472606,0.0014736618648541827,-0.0023837328545984037,-0.00044268771821926676,-6.743725280987344e-06,-0.00022071090450084943,-0.0019328239875537852,-0.0018055785924833056,0.004205168824548131,0.003933465145112464,0.001621118668026638,-0.006363755646677205,0.00438181989815385,0.006651776853565281,-0.0066342658249430465,0.002070553393869636,0.00022555650799555954,0.00015459016579902536,-0.0008054582799135917,0.0003737607606133263,0.0006228985055928617,-0.0015826030791944313,0.0047499242827699385,-0.00043102394464131206,0.0034152986725747886,-0.008298692339622778,0.005190495976764765,-0.0015859743523507844,-0.0007370853587523158,-0.005366613308398977,0.005565808036030361,-0.0014671083018094851,0.004908732441747253,-0.003176832976284821,-0.0008764865939367284,-0.004420505483873797,-0.00016296008312335138,0.000615373810187986,-0.002288457098874855,0.002650173789578621,0.0002556000886017787,-0.007567856593016864,0.005278930807106968,0.003874207130388474,-0.007780939220177257,0.008912533633056566,-0.002505715963212723,-0.0031130048204022344,0.002157107925693395,0.003931231557594546,-0.005106834681623918,-0.002425260464520622,0.004720943857238477,-0.003197656649554652,0.001791341886740583,-0.003060468773815096,0.0010942919655328558,-0.0009046036530394632,0.0029172946387476606,0.0066798054582716615,0.00318779751092867,-0.006972815919449501,0.0027136467013651067,-0.001102944556054462,0.0007934333537882375,0.0012317600060133015,-0.002734002799038273,0.00238718183874143,-0.0037666695349332074,-0.0002647150254545925,0.003269183168355035,-0.0017656112152291403,-9.053273623778377e-05,-0.0017277917621941244,0.0066439551111136695,-0.0037477678416276616,-0.0028840433295391475,0.006289009593171111,0.0017355349165400708,-0.007568980807845501,0.009692224992597287,-0.007205768607689793,0.0004395635479530142,0.003668165184706477,-0.004164092234870101,0.0034371761487365406,0.0015174971755018028,0.0017535827307322976,-0.0035864901435575646,0.003534063398799476,-0.00855453524897762,0.006058836763265803,-0.0022885945179742712,0.001748591204032388,0.0011426234433555566,-0.005565537114779453,0.005711726146002842,-0.002581001558248634,-0.002700499366309557,-0.00209414916204756,0.0008379588295849245,-0.0005379564840257708,0.005935383628800309,0.0010838394842744912,-0.0008118613654474516,-0.00564039196937436,-0.002163520444887335,0.007179286643986856,-0.004072380423250244,0.001143577794740211,0.0007879806887196797,-0.0001390932615255963,-0.004150413561380005,0.005668188282687807,-0.004045569732552945,0.00024077279706958708,-0.0020405633567493293,-0.002727877519031894,0.002104239377146538,0.003070969239990021,-0.005784939433525798,0.0034457749841681783,-0.0032718827762748355,0.00210601139967781,0.001051175556939207,-0.007237346941662479,0.008561299127929174,-0.0016261767365269427,-0.0073498069960370145,-0.00058917064594757,0.0024201442277332714,-0.004729743024483796,-0.00034327145977841686,0.0005546588539110754,-0.0011375901580645926,-0.0015691716049391206,0.0012736513459943298,-0.002782068602204674,-0.0027873346832572423,0.002641352250621899,-0.001855570256510624,0.002512168331176817,0.0007576593719612217,0.000309030492031124,0.0032304858928278164,-0.0023545956531655747,0.00791972420083603,-0.00027967437274246167,-0.0018992114105768126,-0.001820799324171867,-0.0005728684860789616,0.003045720161141496,-0.0014684106915970208,0.0037759572622131266,0.0003338920683761535,-0.0053514258540640494,0.004276393444654681,-0.0021207371255274393,-0.00474228940163935,0.007158695890527589,-0.001765563550455782,-0.0022126582034101565,0.0037536884789914175,0.0037435903053923756,0.0025720249055603563,-0.005225178521480278,0.0038481033077625753,0.0007876470145701192,0.002060067968904586,-0.0056890117892251,0.002822314575818429,0.0077347872737969295,-0.006395947600281426,0.004322994759448246,-0.0014689697335973024,0.0020810118383129987,0.0006467867195232911,0.0012465428973462307,-0.005155096351126042,-0.0003281806601833456,0.00015299524267745494,0.001079939039667633,0.0011691182835521943,-0.00024686746751934085,-1.6848111441308267e-05,0.004283048094913231,-0.006630913914940084,0.005969263464899014,0.005445870898602237,-0.009333475567343279,0.005770580738300597,-0.0036346295568440634,0.0038300434021350136,-0.0018569165937257952,-0.0020095746766392265,0.004264723231064313,0.0020233327598303268,-0.005153565106826724,0.005022489040776648,-0.004343384351241663,-0.0022957372455666004,0.0060271544028269244,-0.0066413635527333426,0.005357699531902484,-0.0049155579720355745,0.0029140688038989974,-0.00803461708893727,-0.002987007408290499,0.006830172213185815,0.0011428713834578865,0.0019425008827743046,-0.004260793985007249,0.004392176053468878,-0.0022284114693456197,0.0006098166813953936,0.002974008559667804,0.002032892065787223,-0.006249049641518481,0.011254329969359801,-0.0043326669175156665,0.005777062385757078,0.0005675696735568907,-0.000920858644938958,-0.0032081069255759913,0.001322255248488548,-0.0070758227420865795,0.006303868831122602,-0.005443320846998402,0.0016671769275416648,0.0025561802891551078,-0.006253171843965637,0.00506907389699933,-0.0009864091866471473,0.00012128214057001865,0.0009154520673347313,0.005367661150065646,-0.0033583861500759643,-0.0021408011190702176,-0.0013006501935809544,-0.0019206633619193812,-0.0021731715805050093,0.005426596035113105,-0.00281225038448013,-0.0028415920435126505,0.0020465044866131072,0.0015069174876662012,-0.0025058086530096364,-0.002520190773726871,0.008945868390972955,-0.005589526116152733,0.0053335492043372545,-0.0009351677118118515,-0.002158182659640708,0.0042189810765790895,0.0004981441486478298,-0.001756691268778921,-0.002169967925641768,0.0024196168780319088,0.0004974412551078914,0.0016691702840779489,0.003434230520688307,-0.001279302348768848,-0.0005401098918584031,-0.0009331675709185723,0.00034055002748729495,0.0033814599280623703,0.001724733404782849,0.000338953263543602,0.0030221649162927027,-0.004149178601283551,0.0013469749970572353,0.0037502482867495936,-0.005387348747831489,0.0033398671629817672,0.003306687445444279,-0.0010409177609244798,-0.0001023848710212575,0.0014892207202509692,-0.00622240266964631,0.0004839417667243059,0.002051977664980188,-0.0019679830561520994,0.001208377316200532,0.001192443259315289,0.00011025986378406068,0.0004030008924138785,-0.0007759211480428719,0.004861968237827467,-0.00103547196827055,-0.0017207112987097414,0.005755390891647972,-0.004219439437051231,0.005299513872554458,-0.005857558813799321,-0.002247705292766681,0.0032792909671556696,4.581009432691248e-05,0.004652456408881233,7.029803376217537e-05,-0.00148430635376725,-0.005417356359549586,0.004477647577576489,-0.003261721995896707,0.00547847050476401,0.0014919657554092846,-0.0023002476050941784,0.0013025828429810086,0.0009030396159724826,-0.008324711420623543,0.0025026620765897733,0.0001689063183501223,0.005176220470838576,0.003464760986190132,-0.006594268431855661,0.004951457688071228,-0.002240203100195501,-0.0022437631881632807,-0.005188909999487265,3.983888545302898e-05,-0.0034639235171208304,0.00023323886089685874,0.003918908562266814,-3.992454831903025e-05,-0.0054636667621417515,0.013969560960015394,-0.005150517579986726,0.0012509370790446184,0.0009887833847831695,0.0066338316835704405,-0.00826886176132096,-0.0006187073853180993,0.003925972115791914,0.0005163020263584374,0.0019563824971196176,-0.00829177651997874,0.004662481462786504,0.0003736315317344757,-0.004313616253859206,0.003191997464406428,-0.0011722344451574945,0.0018073589192493294,0.002387195448297702,-0.0007421800572953515,-0.0008274412232695552,-0.002670652605904625,-0.0006510139660485277,-0.00015721553450761953,0.0037651326113027346,-0.004144741426305023,0.0007877985911915203,-0.007252617692531854,0.009006815801065991,-0.0017641794559628643,0.0005548358696486507,-6.164167805192474e-05,-0.0010284400825895526,0.004659519119550327,-0.009191234863713739,0.007592044525990766,-0.0017854526812790066,0.005006245407704009,-0.002706810890118262,-0.006004912172309809,0.00464356666918356,0.005060271896738315,0.0008939322415605341,-0.0017112409614678822,-0.00011822259451199128,-0.0028998760857113044,0.005356757575039306,-0.004082445333925545,0.0012753402711681559,0.0016267117168062583,-0.0014364790345735292,0.0007005810871160441,0.002254603804555953,-0.007842713212186922,0.00392801323277467,-0.003565895051577557,0.0018274918196125645,-0.0009676652386739057,0.002335494844141147,0.0011399365411711667,-0.0011952873637097313,0.006926178501771273,-0.0014229522761991214,-0.0025493143006783516,0.0016390792087617365,-0.0016227422538046341,-0.0014317814518509922,0.0017606663856787946,-0.0036082213372216894,0.0003332754502321601,-0.0027010465167187285,0.0010764717099548363,0.0001280939705488495,-0.0006455328307202544,-0.0010944038573516173,0.0002683703186957579,0.0005525026963103535,-0.0006824929791641704,0.00455863582338192,-0.0041272696164568615,-0.0013858036339134733,0.002822245491621049,0.0011489374317281793,-0.0017415355360512542,-0.003308238407746883,0.006454620179719142,-0.003401598027510736,-0.005370687130540122,0.010184018915223064,-0.004655442754875916,-0.000521935875265767,0.005159620383596597,-0.008146852019121869,0.0027242670890136726,0.0017104038860479812,-0.0022683827296601016,-0.001145977075205187,0.003104392788798698,-0.0021041517708866547,-0.003969285832101356,-0.0002265482470360483,-0.0023607620274928675,-0.0014491716188050608,0.005805243862161385,0.0029808621918780776,-0.005644759419237094,-0.002984334600587853,-0.0011707396767400688,0.0007516929457040333,0.004127662480843845,0.0003824777794240489,-0.002746272312912107,0.0014384725085259762,-0.004504567949460364,0.0030922840534043337,0.0035530643741042795,-0.005133503643709071,0.004329155230362342,0.004227706121764475,-0.000336996682476391,-0.005662113469014423,0.0027149090656372384,-0.005185579004008082,0.002862073052379237,0.007021213613614571,-0.00808735353588722,0.010898040863415316,-0.0042491554603440946,-0.0009880304621278058,-0.0007423741256249197,-0.005427550257859662,0.005122005231113995,-0.0007555967910629629,-0.0015839388440930854,0.002216175446525872,-0.0040015253675385574,0.00651369499981511,-0.003767294249530405,0.004152032944409812,-0.005635205185777921,0.002404522715441343,0.006050247763106282,-0.0035974585668624025,0.0020080636216743947,0.0014681635549138891,0.0009668070802767638,-9.545225649838829e-05,0.0011054485943016775,-0.003386117421130129,0.0003849630414270597,0.005008559900269135,-0.0005466419559424404,-0.0023285890071616834,-0.0004467589000228036,0.0003190082782020949,-0.0005030688129217155,0.00786900510614788,-0.009372440729060162,0.0026496282273599397,0.006031560348909964,0.005434200283628917,-0.004146175930011888,-0.0011254921186848313,0.0011827660321071056,0.001919007584254389,0.0029971286547095495,-0.0023695981263611517,-0.0014074888715583259,0.002161711799098381,0.0011881195329571472,0.00131243206995219,-0.001499858533814753,0.003401487676654321,-0.009990500017612385,0.003167997728329633,0.0035680218760215134,-0.0019574921174643897,0.0042422390993442066,-0.0006709706706911295,0.0036087850143800295,9.142424384870843e-05,-0.0010127933388023559,-0.007001575865511231,0.0019958997722785803,0.000786100749651408,0.003136212723270615,0.0009484741452368397,-0.0054227082294705155,-0.0011697631278205739,0.005601626908237171,-0.004453817111616603,0.005222928142330795,-0.0010192480688970787,-0.0013560560086489318,0.00139053527989131,-0.003944683820403217,0.0011284947058712875,0.002232122860621495,0.00015367179453588606,0.0028759788000895666,-0.0007915451499991743,0.0009640241330313308,-0.003388447114733701,-0.0015168682600468554,0.003976537128052235,-0.007817761290434752,0.0069181489283839225,-0.0027118709953948016,0.001705980500283069,0.006205527961251602,-0.006805639926857693,0.0018384820017181142,0.0002450839188750532,-0.0023102208824941485,-0.0042712232119679686,0.00621032689319303,-0.00836690916351279,0.0028351406362087162,-0.0007048185792099305,0.0010619879418291168,0.003589370256944613,-0.004255859818212339,0.0021071776969818685,0.0003116358240991388,-0.0012176244142318648,0.0007745143772493507,0.0048995526006252454,-0.002604358593384024,-0.00032969850075036263,-0.0001366795752149344,-0.001284632967533691,0.0036925961133304035,-0.006669555343715834,0.0025955739513127264,0.0018235825287251316,-0.0019696107107736085,0.003065743250277716,-0.005141619124410978,-0.001968367559121161,-0.002545375783584604,0.0034217863486515165,-0.0001231532416069084,0.0015748747490183376,0.00352082247064204,-0.0018245741269157809,0.0011044578178555562,-0.0015345984990466916,-0.0009504427676413929,0.0003250681640055039,7.034328561645432e-05,-0.0020090060597020955,6.052794365851655e-05,-0.006199282120453105,0.0029039920499741214,0.001429513807726594,-0.00013826969183866093,0.001550903722523527,-0.005123636155480762,0.008072058811721886,0.00042617741899273723,-0.0013702378756661592,-0.0006658274034872662,0.0035051555332511653,-0.0039000201491655173,0.0033297236839637773,0.003627342980111464,0.0029814326055835412,-0.005482196067095834,0.0031387250503152704,-0.010151851019367709,0.0018664845521443366,-0.003466862502015255,0.010145689848504634,-0.003134157517178115,0.0005136136873243552,-0.0018116712652265232,0.0026421297614936078,0.005837226718944777,0.00010410651625388081,-0.0012964577171260677,-0.0011587367090702303,0.0033704570539990525,-0.0007459410950706943,0.004936839713981641,-0.0010201199664356608,0.0033772121931653835,-0.0013583989203665653,0.0006210886087175539,-0.001497273664436514,0.003922607437164341,-0.002313255646035772,0.0014187892315514407,-0.0025237141143586387,0.0030016616412150195,-0.00047273454654052214,-0.004558795648256473,0.0008965463114643022,0.0028471346631698926,-0.0018936472535416255,0.000525960588209012,-0.004116724991752803,0.0040240195749886645,0.002792047861248656,-0.009674413343455276,0.0016087827728480236,-0.0032686034606315573,0.0010811844021684563,0.002297614538151813,0.0017480900886847578,0.003079070675477874,-0.009641293248909,0.004128021746016246,0.003018650330567894,0.0033261216403682363,0.00603616781247866,-0.00270310353653999,-0.004219249477039301,-0.0032858470640063807,0.0024395003664184766,0.006632478730791214,0.0009724477560897986,-0.0052229370541191575,0.002094535402763867,-0.002792302492707457,-0.004203354482660561,0.0060336981533757935,-0.006467489418806977,0.007577285980604472,-0.007816706958258432,0.0035699237951022705,0.00026214194672185713,-0.0010477669038418112,-0.0033406120228325117,0.003093999527906445,0.0017632120646684823,-0.0034645932463557095,-0.004279381279639457,0.002797758822202566,-0.003063267749304757,0.0033435936552298536,0.0011203073968574185,7.142218861783428e-05,0.0006366531642948063,0.0010226847863339461,-0.00203751502765084,-0.003990403830538728,0.00048668055340094445,-0.004112021943722779,0.0036640848671997926,-0.0019926705950040055,0.0014144424015443571,0.003495562279968699,-0.007417945567228776,0.007174326769897972,-0.0015445972082705937,-0.0036431833837863503,0.000796338480250019,0.004025825297783222,-0.001645857670419995,-0.0018873209913307623,0.002386473083427098,-0.0031240005247193813,-0.0024132166015378076,0.006091186162982226,-0.004160139650510294,0.0026536994465976944,-0.0005262333027502473,-0.005207566360207516,0.007194473830091654,0.0005191880377528696,-0.0039427420939512,-0.004009692017151744,8.623353934259128e-05,0.004343351910349378,0.0002145655631723256,-0.0013706866694269204,0.004890558775808297,-0.00027669182952459634,-0.0009259240977388295,0.002414906955583723,-0.0017640235524171786,-0.003622214978659644,-0.003023897705440662,-0.0012551754147354477,0.0024602683681036893,0.00040734907088414414,-0.0011168599065470772,-0.0026249393909375572,0.001471275035455926,0.0009206180548630334,-0.0021581459999466756,0.006293095466869456,-0.004992517775414692,0.0024428459098078466,-0.009367022103604898,0.007930865394490824,-0.00893184104302821,0.008388038035265296,-0.0041655137808457934,0.006605984470611493,0.0031587068685659313,-0.0030097802446557385,-0.001532961135322993,0.003992207584323297,-0.004261811343432176,-0.003148858931264945,0.0028587598262091664,0.002877273318538279,-0.005050129261754559,-0.0017146215918918514,-0.0007093616223947632,0.005145793163840363,0.00044054992604666897,-0.005964653020074335,0.0055102351829759335,-0.0010517949338238028,-0.002816488729200654,0.003455395766682481,-0.007916729493497745,0.004795621995749525,-0.0027686594970569504,-9.280939172523219e-05,0.001696696677855194,0.0036772214949755645,-0.0022442341470780506,0.0016009771862540564,-0.002609593797106963,0.0020636686935879126,0.0032915515160633914,-0.0007662991555552121,-0.0026337182286862385,-0.0029595568293330522,-0.0006039743284865609,0.002062031587892922,-1.3117621583629106e-05,-0.0027550362268328027,0.0030750695223140173,0.0004881216250830214,-0.007664662053781407,0.002955964883703001,0.007215370673232152,-0.005421468958476742,0.0027873073804299824,-0.009626843692925536,0.00939322616700977,0.0005238417135665705,-0.0017879122150324795,0.004462224011201079,-0.004169575902161537,-0.0018235426140093456,0.002028900104274125,0.0013358714793747378,-0.003520237270471183,-0.004380708506249286,0.004408921406735161,-0.00019793106375911025,-4.414033652466176e-06,-0.0023996071546013727,0.0026438395624036187,-0.007250826566479447,0.004543623234027515,-0.0018760588609622697,0.0011362554042528084,-0.0037456326860287816,0.004900307312718385,-0.0015894831671727145,-0.0011024045381004951,0.0009261783483613509,-0.0015430740666844602,0.0017785199123954336,0.001605032742215354,0.00045698506308266217,-0.0033004669937834125,0.0018126267193750761,0.003904097691355779,-0.006670569354896798,0.002662295900849766,0.0018590835907859754,0.004532273806553479,-0.0043736876264513875,0.004533927919425744,-0.0022560698816455,0.003279981883076151,-0.0019352741783996421,0.0007147795539921422,-0.0012061265622648235,-0.00043399750904331747,5.957115036447464e-05,0.004038064493383742,-0.0022074954359988736,0.001704900383859157,0.0005159663902083062,-0.0007243245860351975,0.0038576881534594463,0.003397203475258564,-0.0018051524966012356,-0.005182779693760731,0.008046113417741163,0.001363390391132496,-0.002129340188244193,-0.005005264164680438,0.001478913936272388,-0.002438679004860737,0.0032930763748506282,-0.007058817119324588,0.0011124767099685,-0.009565492242129268,0.0036487822528390866,0.008540679904959441,-0.007541536316310461,0.002011588724126628,0.004007957141873409,-0.001131367106410637,0.0021539383092163615,-0.0026515281041230385,-0.004280212878691099,0.004562342576070828,-0.0025590507578189974,-0.001349044733556512,0.0007388776889177198,0.0012196386920274441,-0.0018247504431815776,0.005964190946626944,-0.0015449897621715842,-0.00021060268757173276,0.0035236571976016303,0.0006528662175954128,-0.005843344664457521,0.005642226963665616,0.0014221490189657683,-0.0025225285431081028,0.005385041882745324,-0.001029557845323088,-0.0034854935167197136,-0.0005729938075457877,-0.004786719980609509,0.002269239075876514,0.0018556507694527725,0.0041217283889479475,-0.004223853219060522,-0.0005800689798469183,0.008555768769962988,-0.00517415275137759,-0.004781876449727197,0.007973556553051259,-0.009321304494481179,0.004837367387227033,-0.0033270791967974144,0.0047050476929318555,-0.008100538543068574,0.010510975882356211,-0.0034643471592119175,-0.0013705698099959205,0.00535256880274778,-0.0010353517354396745,-0.0018385704109971557,0.005317796957731718,0.0005590719561270108,-0.0009587004303560023,-0.003847505079012036,4.240185413051822e-05,0.0017904911721234834,0.0019043989710676632,0.004155500904862036,-0.0019924194223666803,0.011541457691790135,-0.003656789564646797,-0.0005304744139152906,-0.0022169809637267255,0.0022194169503025503,-0.002077810197807438,0.00022797699511369133,-0.00048599912830705425,0.004883984981577123,-0.010622204751744621,0.005623660869735584,-0.0010247932021322868,0.0031648040453654204,-0.004387002397560366,-0.003850011261141646,0.004264619423373725,-0.0011531019692589894,0.004225244807693574,-0.004313338589481296,-0.00035363223765824507,0.0032618045947565054,-0.0003812375531304113,-0.007608307018336527,0.00671185177815526,-0.008539945492979085,0.008018708040597627,-0.00287932763756888,-0.0013957204851445882,0.00018262987683383497,0.003901498635208742,0.003826296421481272,-0.0014006607785053478,-0.0009292078983868553,0.0011562308924706632,-0.0003625437643143288,0.004010707715617795,-0.010623380026846891,0.006077227937050791,0.0019811855591296084,-0.001197198336184635,0.0028016643638245427,-0.0015165047744459057,0.000580244617201405,0.0004137782677124601,0.001581541672647512,-0.006983359393990061,0.00827068546689338,-0.0038608067312789723,-0.005428064034905121,0.006226673904057897,0.004511871441903026,-0.00875655787347284,-0.002264782758122246,0.009598650342806296,-0.003933853845791215,-0.001402099209640165,0.00625039492239455,-0.007657444084173912,0.007353028543308992,-0.002842481781792737,-0.0014975497894509852,-0.0012485468568068613,0.004755946521685221,0.001035306852254402,0.0013205350953589211,-0.006410930686396143,0.008865130015879498,-0.005702977410015998,0.005262856276006183,0.0011737015228743667,-0.0032484156285820494,-0.00029814628867154966,0.005551391740775276,-0.0002505653786903947,-0.001630661488381121,-0.0027976415536959346,0.00802094434793896,0.0020104891292455707,-0.00449505296700049,-0.00026547597218573636,-0.0005687072366447233,-0.00031809038623861475,0.0030664737238856672,-0.007405982032400544,0.008947938486355403,-0.0012564115952237533,-0.0030043692311799495,-0.0012411163646496456,0.003333716024827983,0.00014830255711134347,0.000304059166079443,0.000436500453255295,0.005404738587035874,-0.006152008795484383,0.002139821857577858,0.00031164113477979776,-0.0011553381431599007,-0.0007812194659586459,0.0028004612247947702,-0.003946452147884546,0.0026804064158484023,0.006182874100822158,-0.012706487081345435,0.003038926315419937,-0.0007488836643238325,0.0034148966231757893,0.0015734737032054864,-0.0020460948115795822,-8.521621455236377e-05,0.0033323733588812594,0.0038654525008815425,-0.005118841076573652,-0.005018398229266035,0.0012343866390917154,0.0005182461795427535,0.004425148087196868,-0.008534386265411949,0.0034491554736141455,0.0001981983734003938,-0.004251941294575138,-0.0002589908708684563,0.005129755581506214,-0.004118079653442189,0.00019639081147081378,0.004868907754798856,-0.007940540451340551,0.003037562052925873,0.002935672404442548,-0.0027691629089912494,-0.0029568245403347776,0.0003697495673004623,-0.002160110407517863,-0.0007005292831194929,-0.0008947666003209468,-0.0060223280057777814,0.0022119562977360794,0.002484537990001209,-0.001518443569594451,0.003529767987375244,0.0043150301075082,-0.007599496960027228,-0.001975693773776301,0.002620884734110056,0.006778636973261774,0.001498931996525029,-0.002562339914667258,-0.0031402480317686138,0.003932199179656834,-0.003680202719142951,0.00287995013913018,-0.0002314076103308982,-0.008707350905807478,-0.002808179187079206,0.00840778632247597,-0.002362133018568476,-0.0021269787400159863,0.0011501391396882095,-0.0005523606459459671,-0.0016695953941098173,-0.004780814192493657,0.00569965595033136,0.0037410190102430967,-0.004622803729760317,-0.00046638632158638594,0.0021058731372874634,0.0005394861981835667,-0.0031542067195209013,0.008169927090602436,-0.00318971685212525,0.0006935411411913111,-0.0014825690451870247,-0.004180498892340259,0.0020293665679511023,0.0041277882140033665,-0.0019584205397014946,0.001867159143265151,-0.007139633686244212,0.003623319928153425,0.000378909240993713,-0.001325961825106798,-0.0021833852596432252,-8.243109748256858e-05,0.004718739000579584,-0.00030834216144494755,-0.003956161133330788,0.0009649966264067258,0.0038101163543289005,-0.002113250815431928,0.0016562980343292851,-0.0015356414960897796,-0.0015245024769505902,-0.0023746494570300375,-0.006292677484821377,0.0007905283493084941,0.0008049696489180111,-0.0007960834068160425,-0.005483264162362183,0.0025060369654412505,0.004879267261093862,-0.004395376006382567,-0.0018627000556055101,-0.005139477755663039,0.00573853173681196,0.0022389189637842754,0.0036269335044264166,-0.0022861422595517166,0.0005563962892146226,-0.0024049010858377615,-0.0015277956547590568,0.000371081381517614,-0.0008272875013356665,-0.000821953909287512,-0.0010284245880235099,-0.003477830286472446,-0.0007739079236531507,0.003886057047372213,0.0003120867410808438,0.0046266425568528904,-0.0007117286736452325,0.0021601823944221083,0.002513573773425346,-0.003646741629158928,0.00233643295943121,-0.003690420844835283,-0.0025770302122118654,0.001008609906042836,0.00260352730883284,-0.0037013953870303224,0.0012134128811276661,-8.379243336604872e-05,0.00023342690195058742,-0.0011550583810800638,-0.0024859807949130313,0.0004684236480841637,0.0038894316522559967,-0.0018623989438755944,-0.0015582821799578024,0.0016044528738591041,-0.0046162054595612,0.003722244963041779,-0.003208664509753242,0.004067513602821668,-0.001386058332678998,0.0011809921196914255,0.0017977062237109305,0.0018772044018936882,-0.0029256264842132105,0.006045960317670919,-0.006223797260069386,0.000760934616377432,-0.0024228259295925193,0.00847872056873784,-0.008755202348697899,0.001924906625309492,0.00504646817234492,-0.005362503822943885,-0.0022436107216834518,0.002890881715992859,0.005651253412447818,-0.011362649141076797,0.014339590781618452,-0.00971871533540463,-0.0011260046207896034,0.003884989269991746,-0.00230514561392533,-0.0003033332816356428,0.0036320687772771376,-0.0017489829398959376,-0.0012764325759678872,0.003693569309917597,2.535103059378707e-05,-0.0040288996111258815,-0.0015628046448480611,-0.0012698518697074213,-0.004124131359058602,0.00022809639019033656,0.002713832081896127,0.003965696699228054,-0.007476180108943924,-7.45009319021818e-05,-0.002434610927278777,0.0019259140814639334,-0.004982962141429858,0.00407743447050297,0.003872476470503995,-0.004344974229663163,0.00150456159847296,-0.0005443371181862009,0.0019063328763682782,-0.0024212152267743224,0.0018482955792489422,-0.0008590622787288646,-0.0052254764162216315,0.008615570441993032,-0.0027561590685338862,-0.006065274314131444,0.0030898643681032895,-0.002155288877765778,-0.0022935863910510325,0.0017843638257432934,0.0033188464030184674,-0.0008221025254566284,-0.005231221807347106,0.0066113157381978505,-0.000770667053319935,-0.0019414593826351113,-0.004651893055360618,0.003482876708247703,-0.0026968255893929215,0.006732521715259659,-0.0018587819496379463,-0.0011146869069043476,0.00958958525191084,-0.011872414724568991,0.0032042075564847894,-0.0023492419169078684,0.004166023153052606,0.0006401134141158567,0.003015911982174127,-0.002043186970614812,-0.0013139527466373862,0.0010384023238373301,0.005532938212767421,0.00042465796064342467,-0.006863327194676025,0.0036750767043926985,-0.003090150908771026,0.0032603968161607276,-0.0047520328736933275,-0.0010162741696603198,0.006744260677863581,-0.0016368343234505044,-0.0031949677542411955,0.0016393321558051683,-0.00017019738439566514,-0.005943457760152255,-0.0020992902033563233,6.443409308432908e-05,-0.0027902743025447958,0.003801759501317242,-0.0002757741038968608,-0.0011451614852673814,0.007214200389623882,0.0032596894823602846,-0.007755778172042482,-0.0025230594995543625,0.006434927093021931,-0.004669916776504734,-0.0032801329299723984,0.006097796209675745,0.005839915990502654,-0.007737686190479147,0.0016031010417907191,0.0038965833386250294,-0.003095718721786967,0.0001479249550168916,0.005220438408736704,-0.0041352775902424015,0.00453225696702928,-0.0013083673980125417,-0.002520991543955787,0.003193895812955828,-0.004105381099365078,0.0041326491958586405,-0.005170168854975993,0.004521677814894719,0.006968529408726827,-0.007607799026478984,0.007986729931731055,-0.0003199947548863975,-0.0069027528240094725,-0.0008030262543563004,0.008386638252230938,-0.00836713915225165,0.0032195190761456676,-0.004874493243076985,0.006872485904942632,0.002435498876702671,0.0009935506845994751,-0.003061466931357667,-0.00031840256640571976,0.0015893922189502223,-0.006266943192160543,0.007985986087720076,-0.006963591518940932,0.003542921009882688,0.0011031094158187248,-0.0029781034127031826,0.006982229791844282,0.003707203946098188,-0.0030026300147653977,-0.00455090859639508,0.003170862969052569,0.0008863445268116615,0.0033512400990218317,-0.004226020755116271,-0.0011612144679799693,-0.0014195647334930921,0.008483583631730861,-0.0044113333348967864,-0.0033676457972939182,0.003355909336075386,0.004164452556585628,-0.0046543699265208524,0.00013613758877491247,-0.0005167358272454565,0.003913226655663879,-0.002934993649578321,-0.0066045690183020485,0.0038811139469696844,0.0005291364045181795,2.7700266230674814e-05,-0.0068083313286741035,0.007723555519352367,-0.004716258501472377,0.0019321764619332168,-0.0004368123805038927,-0.0022771318043093205,0.00031085411367641496,0.002537150549624685,-0.00045632295504101784,0.001082967548133336,-0.004188814585835334,0.0033998316392573856,0.0032644628978848065,-0.004435710236790566,-0.0023138326577868996,-0.004699321402288531,0.006491871285299635,0.0002589878524940491,-0.0012550000357566332,-0.000255529594763117,-0.002139482624450895,0.006792196139927003,-0.004869008306325395,0.0029304607694572234,-0.00155591172933506,0.0012478313661801568,-0.005724087420891611,0.0072392488331984835,0.0011902669195733976,-0.002257445195267903,-0.0015090464467932701,0.003344993344564875,-0.0008943687582436045,-0.0033529980581774787,-0.0006915423621169316,0.005211620065185393,-0.00046649590046339383,-0.0027270374437494025,0.005686235218792162,-0.005382112302391571,0.0022285299423269313,-0.0021360860686949097,0.002105609551317047,0.001515986676717822,0.0016281656365555901,0.0034988211704474292,-0.002951990459539835,0.0032199883937764706,-0.006762572855814628,0.0022574308648354536,0.002781932621594687,0.00029044834376685207,-0.0036497765781970753,0.0062960238595053675,-0.00025701492925999265,-0.004724194663169942,-0.0003739629453288477,-0.002450533456412047,0.008011945525488498,-0.007652477668009764,0.0032127705920418563,0.00422365146186884,-0.002744887223269565,-0.006570211308789412,0.008284366071450543,-0.005630702664752917,-0.0010952327111857078,-0.0008351276297214586,0.0012884263770688122,0.0018528660858874821,0.002136453437524288,-0.0024752093190820185,0.013517792211544734,-0.005248424099317316,-0.004160525961803782,0.002950665050535504,-0.0009238411646692412,0.0019389113415568392,0.004640591582654221,-0.001763391291095602,-0.003472555132543726,0.007680981184423066,-0.00040325306150582025,-0.001870630388970966,-0.0007826050297639045,0.0035800575748436998,0.004921868701448611,-0.004210691586456178,-0.0001996082454365012,-0.003334653278391123,0.00010322599352805134,0.000787751330267579,0.001983489794336817,-0.002510711613137066,0.00270442958294111,0.00023429821607845715,0.0027661505514129953,0.00015908593736791406,-0.0019099130530589531,0.0018466474020385074,0.0043383656611516415,-0.006910010706870139,0.003673501387753283,8.981727078498096e-05,-0.0043674137807567645,0.004994257747936656,0.001173281335665834,-0.0032849930353110552,-0.00015838454936931875,-0.0010943139023910267,-0.003200830627136264,0.008388218470684345,-0.0017391809997420915,-0.004645787552664841,0.007175739955754025,0.0018347463682909652,-0.0009799515186457671,-0.005033414211006005,-0.004492282798538045,0.011846384347257544,-0.005534064322465716,-0.003317219836282962,0.004203087237627325,-0.0016563726324590672,0.005668343962381884,-0.004123866501255587,-0.0010456916791393807,-0.0010320665611891547,0.002425094434838383,-0.0021506243634205877,-0.0037217291208866236,0.000930134310511896,0.0007744798434700667,0.0010396986600333265,0.008277515185083071,-0.012265084634924888,6.726541823303283e-05,0.004482136752084489,-0.0021158847369267143,-0.002213439277239564,0.004749677894686006,0.00016903670749623365,-0.006251914783049324,-0.0030023820386350813,-0.0025381768833766484,0.005474857134911396,-0.0020991132505113193,0.003058404285654956,-0.002355006529405016,0.001985363452294002,-9.346660652392362e-05,0.00121438690003149,-0.0015740995481853019,0.0005256980550266885,-0.0068607651956079764,0.008218852070205365,0.00404580247357324,-0.0011480512123808336,-0.009412213860890056,0.0035317206436565884,-0.004222674752618901,0.0038901147688556533,-0.004789474547409622,-0.0027354729108486865,0.0045354422869742835,0.003494815357700462,-0.0067635273438548995,0.005961328149902686,0.001248746845153727,-0.004221662128135091,-0.0013615007573302867,0.004426087229675899,-0.007907965886057312,0.003693689908957938,0.001373591101549777,0.0021962050840923374,-0.0015575414893350351,0.004155078863550334,0.004062072363131329,-0.0016388654684935321,-0.00030606066196268837,-0.0007177539288000551,-0.003260463747768746,0.0024692134343779187,0.0007924856266628237,-0.003009634679217316,-0.001794066273953799,-0.0012129078376779136,-0.0015696482272408163,-0.0012956878913346615,-0.003944733721523079,0.0018837010150321047,0.005807615489656529,-0.001017006917218241,-0.0049549283760177395,0.00461491637135986,-0.007235234969787094,0.003596449177618627,-0.00030588980595954313,0.0005840946135353022,-0.0015644606495025385,-0.0065585593126018405,0.0029569020953243656,-0.002797686997964518,0.00030002350962411245,0.002202815749317692,-0.001572806295954572,0.0062327107201753905,-0.005068395230483604,0.00046339914698957077,0.005044250965111368,-0.005012685857537007,-0.0005988192569035998,0.006424741191584265,-0.000674844181885001,-0.003820725532916876,-0.0055423125624772486,0.003879251263537971,0.005534804248195263,-0.0016575638390682037,-0.0034954098848057735,0.003617997934088689,0.006960056354792302,-0.0017335567719980037,-0.005384010259528668,-0.000801933101087402,0.003909865631513382,-0.0014095478476505623,-0.003345761930608855,0.003635376075561765,0.000515453878170302,-0.006100222206052722,0.0009722816158950126,0.004422724362413406,0.0010058826447021814,-0.0011923020697836193,-0.002656715173468156,0.0002362359318400874,0.008387296783631322,-0.0007177683937555159,-0.006901869032348731,0.005670043881338206,-0.0028970509825077275,0.0023671897698188072,-0.003768459281927102,0.003825995015502364,-0.0013266346491825449,0.0005101675326222204,0.0006744748032248135,0.004047856763372643,-0.008978708111080569,0.004184027714632802,6.833832860950074e-05,-0.001997326415328369,0.0026156442697702676,-0.0005173275473209769,0.006469752182685009,-0.005635622448481972,-0.001562743853640737,0.00692140819314097,0.0054000124422801275,-0.004797135716432566,-0.00027039679815558986,-0.003138626041921708,0.0034499607547814003,-0.0035985312223863054,0.0054542296973211744,-0.005184801056871306,0.00981263682900464,-0.00854563290106393,0.00533322548184108,-0.0013415678952825173,-0.007684737848313746,0.006080610514777886,-5.6353140928382395e-05,-0.006474336453259826,0.01057676614132676,-0.005489952881449294,-0.002556865464680133,0.008517819248703686,-0.0021601161980829707,-0.0018707174549603038,0.0003907974559870725,-0.0005589913459661422,-0.0015999893402142674,0.003515200242179044,-0.0023921401409823153,-0.0013555076985699752,0.00583483026258281,-0.006977043190308758,0.004746676277081265,-0.0071174638255368,-0.0003338499822385308,0.0048250213405885,0.0026744990487898796,-0.004894203059938692,0.0011216886830717572,0.0032867033531565437,-0.005331572776154914,0.0030302988240966267,0.0013148322932823766,0.0033527073895092564,-0.006455939277415161,-0.0002918150004675894,0.0003731330131404857,0.0004959913695812213,-0.002258713568780907,0.0017818576873730263,-0.00047680068274079694,0.006579504509740438,-0.006775639705663552,0.0041167945506206585,0.0017996193743859015,-0.004058501562445341,0.004174556653821529,-0.001629109176761645,-0.0037235128231274455,0.0009141372300999566,0.008556419245287071,-0.003741447176662093,-0.002898545783378389,0.003472227589248862,-0.0016655488062683264,-0.001271698655295888,0.005138540124053174,-0.005583039527318612,-0.0018138423595835244,0.001735359284000692,0.0030869137721939487,0.0071806861717425875,-0.0021563773551740942,-0.005180308228881385,0.005234984258651649,0.0035723692974528043,-0.010006983402496016,0.005652671578656305,-0.0022244861547369692,0.003027763779331301,-0.0049221868123981586,0.0054068069129951666,-0.000667894261471754,-0.0022908435230112618,-0.0006784302079145113,0.0017269894365088087,0.0025514576036890033,0.0026708998977079956,-0.0023206296061045635,0.004405919844282901,-0.0017348024863574644,0.0024533375128615105,0.0006378284321753417,-0.0019662686894447072,0.0003693054691897379,0.0014534514680673554,0.004280348845357368,-0.0033999680447940085,-0.007704798764109616,0.007016514982296265,-0.004570275404796093,0.0012625638028567294,0.004243541709675826,0.0016729520678219554,-0.0006200274556249796,0.005488494215547241,-0.009785769445763832,-0.0035362088425953853,0.0072133914269864405,9.126044185985383e-05,-0.0023105190738831717,0.0005946540421344062,-0.0003993667207352519,0.0022635024104399387,-0.00310952318647032,-0.00023786727485071858,-0.0022212883319732307,0.002867320478528309,-0.003590544394551103,-0.0033885700058974145,0.0037365404340042657,-5.949554102454603e-06,0.0006063470810174742,-0.002181300849227901,0.0010298690952283364,-0.0005789671783489292,0.0047328172164073316,-0.004850579287010868,-0.005247571866100681,0.0013533275589234924,0.0033309335745540835,-0.001509909157744613,0.0018745379544897202,-0.002104767621691049,0.0009903060800140365,-0.002666630168063454,-0.0012550719505587393,-0.0032612295170424705,0.00565303153085831,-0.004054012115546572,0.0019537616573147357,-0.004097802226250769,0.008259617870221033,-0.007761413524863127,-0.00029512705573006613,0.00048244100640064874,-0.003857797432579072,0.0035904155795521303,0.000224282660885511,-0.008138734520405871,0.006275013543602948,-0.003656386954795931,-0.005104566357555013,0.002816964382787258,-0.004443729971586502,0.00597602665704819,0.002795491012859717,-0.006459729756604925,0.004143391200659639,-0.001967210409744433,-0.0011654140444148497,8.437186986585854e-05,0.0017705007815043776,7.514616946869022e-05,-1.218148613785712e-05,-0.0009654371110874136,0.0012300709207539529,-0.005593528496392684,-0.0002927873680846133,0.0014963558184668934,-0.00024209414492921925,0.0007774548495273384,-0.0006455155200038215,0.0050615805712434115,0.001640712012725746,-0.0038193254788123155,0.0010545333855847003,-0.0007669086477011039,0.000663873659692899,0.0034397934502556297,-0.006354284654342408,-0.0026562052913065375,0.002409121237889427,0.0024937021130131652,-0.006628615799937228,-0.002318975815379424,-0.007456277643989045,0.006983040620325819,-0.0012402676824957853,-0.008278939857793955,0.0028721060877176653,0.0032578305601507424,0.0011062144537454296,0.0013637713406729384,-0.0009434499259357768,-0.004909475943428843,0.004942180084463021,0.0040552015334177635,-0.005901775654860953,0.0016287075084365462,-0.0006736210696028867,0.0010957746916364045,-0.00014101271535749656,-0.00911893630679168,0.0067296865316831215,0.0003933632413821596,-0.0013812933348807213,0.004876051856525023,-0.0008342246984292905,-0.0018975986991294832,6.417882130484838e-05,0.0013051631708486193,0.0004565399433978865,-0.0001471685743079493,0.004003394887740857,-0.0022230514828787424,0.002901415299607627,-0.0030890358266459196,-0.0004574353071723419,0.0015417998040646874,-0.0008013602069101116,-0.001991878552920002,0.005970195011981026,-0.0028778979277317017,-0.0028068897997850103,0.004039506743196372,-0.0038629942777951274,-0.0032766992144759323,0.002773175028239777,0.0029531081467459724,-0.008110922977339893,-0.0014605816672783728,0.008374295044427238,-0.004985509569233626,0.0031174962359250586,-0.003226129835865159,0.0033553585827618138,-0.0024472659963526208,0.009334352362306075,-0.00373320307693457,0.00245969253497658,-0.0018824207296588727,-0.0006284228830524591,-0.0018629589015519508,-0.0012721090015777902,0.004943797729227994,-0.007326623022992552,0.005359669692588819,0.002543498268363048,-0.00632571272765982,-0.0008806365444150019,0.0005738465519267402,-0.002816263253417417,0.01192928465061361,-0.0070661265951565055,0.0011126405479552188,0.0018373647341949414,0.0030418054072281196,-0.0020438999853071597,0.004211876867301015,-0.004090507377925082,0.004013333036436192,0.0028738939266966888,-0.00922853897186302,0.010470289927164351,-0.005030447384074713,0.0011078578079826045,-0.0022733082104493636,0.0011542855915496718,-0.0026672204489527705,0.002786638945983623,0.0005552410628037576,8.960067016571614e-05,0.003553115578556726,-0.0017925225561184952,-0.0020762176387204346,0.004181870580635277,-0.0003231554065966355,0.0003339356977786836,0.002875777263175908,-0.003001525993054437,0.005415766758319527,-0.003915627501952703,0.0011236410813505085,0.0024580575532079808,-0.0027925654615433594,-0.005707429380373636,0.0008057209253459268,-0.0007601410107655812,-0.0011633744795503534,0.0012231345518009383,-0.0008177835759330484,0.002446079730959939,0.005550953308749789,0.0005228658813888695,-0.002507853880116761,-0.0004465342783148109,0.003920048452908764,-0.0016787442089627486,-0.0007103418273197573,0.005717358683268396,0.000757184941840421,-0.008214753874264699,0.005562213525586445,0.0005251047389738297,0.0024298667188090307,0.0024527522824735752,-0.00620208958243611,0.001126097961540366,0.0013772181206588691,-0.0016678733836728774,0.003128903153830124,0.0062285803170507425,-0.0023631075711273643,-0.0021580043958991223,0.0013780397789766787,0.0020478103547256006,-0.004747878684648905,-0.00012410917476393093,0.005788867734304834,-0.006240105078135435,0.003068441123530126,-0.004187919843499338,-0.0025895011906633346,0.007301340831840616,-0.00561146085836446,-0.0004553926163643997,0.004404956725532456,0.0020486362795762,-0.003646825442106461,-0.0008176833473617856,-0.0008178948337404793,0.0010951047294713867,0.005836962239579607,-0.003134145991033145,-0.00043987291271582117,0.001841880337851355,-0.0014158644773756058,-0.003750637724631718,-0.0008859772238174762,0.0015804918857264202,0.0032609462675128697,-0.004111214337389541,8.293214779702123e-05,-0.002636626314801125,-0.0018534612897183073,-0.0023185095887040355,0.003645814090442833,-0.004283252885278342,0.0007086089755470745,0.005004046365315724,0.0005124218356778802,-0.0072181005831762415,0.008226784978071647,-0.0003013373792174878,-0.002551251808803114,-0.0029089207199932787,0.002248691062876752,0.004157685394310597,-0.0026412664780197438,-0.009121426537788836,0.00429556076308301,0.0020969592348213635,-0.0020813700254296934,-0.007108338557947693,-0.003774270853360488,0.00442181504518795,0.005310030452529815,-0.008496643339520259,-0.00016134765757744706,0.005674453718877593,0.0033307422571983393,-0.0028164116653746577,0.005248781946415055,-0.0035257316511170724,0.0010584058492879198,-0.0010073546429503896,-0.0028091189416670726,0.004608628142597238,0.003033945647446946,-0.0017487734643986592,-0.002691733084691926,0.0040920930544945345,-0.009657745350949815,0.006746277336206366,-0.0033672618016633176,-0.0013730845269520795,0.0006823460032707496,0.002573542812519242,-0.003351219160053535,0.004617844124771304,-0.0011831677730992855,0.0017443653631266998,-0.0027953743519076686,0.006096493937254682,0.0005596235092243453,-0.0024891226519535275,-0.0029746713495453366,-0.0031457936581351137,0.006528857404077339,-0.006341760840568288,0.00036408681651857314,0.006811760269839793,-0.0024043596121716805,0.0013009346523504411,0.0028583253475493093,-0.004405572427471388,0.0038115606150251977,0.0014705395076204492,0.002144843775156724,-0.001073955300241606,-0.005790781177326057,0.00332498214227241,0.0011622569048045299,-0.0064458249616073235,0.0041456805233101145,0.001554413062185212,0.005307285873754655,-0.00618300623931847,0.005679946270000843,0.0019005808573773022,-0.004569935728090395,0.0033527048942775424,0.00466716671871637,0.003367575012039256,-0.006448188407189315,0.001600534974756435,0.0050898816971966165,-0.006955260661161713,0.004332018972233479,-0.0002789415309074223,-0.004599086635348342,0.0023356034886598035,-0.0011472656169213033,0.0014065046959213017,0.0014027013035587035,-0.003386214310784278,-0.0009629746033351773,-0.0009757313783005123,0.002857016641880889,-0.0016392566777226319,-0.0019462632373340796,0.0027087109932312585,-0.001651596138851624,2.559039394942633e-05,0.0030160792236430777,-0.003313576202915027,0.004585874421121829,0.00011651472489779435,-0.0033241217449565806,6.508390668864274e-05,0.005372697888909377,-0.003907521791512651,-0.00016724177833043647,-0.0001794184676746156,0.003955876359213215,-0.002902425496251128,-0.0015733495979287568,-0.00018004998787603144,0.0027964570747111605,-0.004310463595779432,-0.007298968741827125,0.001325582998429869,0.0033401319173129106,0.002650596167255578,-0.0016265244372784815,0.0030794480376495005,-0.0006790571896293641,-0.004890910712496971,0.004252798029000773,-0.0003527487092635754,-0.0011428857990528143,0.003784440768004765,-0.0025256472661339445,-0.0015141897125778825,0.005372628690678326,-0.005597546629120555,0.0024449098885530895,-0.008769020811016116,0.005461513510572628,-0.006862717460004173,0.0020345988361412876,0.003550605335454399,-0.005679826682443426,0.004533130711543534,0.0006937659497716245,0.003438171588384196,-0.005493462420550052,0.004765383715945209,0.0008230669854481867,-0.003012538273663747,0.0012607734320684227,0.00239517560679776,0.0005435424359374067,0.001414892101982402,0.0023368530243559633,-0.007907707215391026,0.006408397530766125,-0.0027091727963257334,-0.005878952748429522,0.006923060361688088,-0.0012179513651142749,-0.004257946665083608,0.0058120614428286,-0.004917860290986334,0.003529252326204985,-0.0027556746593257048,0.008532592838772017,-0.008405096239054189,-0.0030115813482145047,0.005374570951505626,0.0002616711190747032,-0.007561149225188031,0.004269183956848191,0.004595355975285951,-0.009442249274334999,0.004946643648492292,0.0027464640589111022,-0.003936450874276543,-0.0010554168114676962,-0.0006808906615352165,-0.0007008940975500852,-0.0017291533384451762,-0.0002386374286877123,0.002668795449281687,0.0013081056396645296,-0.0025465493469800458,0.008704525072713798,-0.0020566268020578817,-0.0012130144344236445,0.0025087783411249977,-0.000787676981813582,0.0014879731132275112,-0.003362623126897323,-7.58572015573893e-05,0.0006371705362588992,0.0010865659589857268,0.0016170742526427683,0.0002823064133747502,0.002128315225454857,-0.006160048129314738,-1.4933548296876125e-05,0.0040609140747745,-0.006587599434758491,0.005930140083900284,0.001158276205404485,-0.0058052410650487486,0.006833623713246596,-0.0007282480278238482,-0.0028293521955812294,0.004629019043378178,-0.004139961315625358,0.0003817613418543206,-0.0036724458355623392,0.00046961722288117014,0.001120020690600379,0.0024201389106982547,0.0009153733693658742,-0.0038539992731040956,0.006831287104520177,-0.0006100860025317556,0.0006918357852537003,-0.0032505765539228714,0.004375772378265367,-0.0070728861170443625,-0.003474109397485955,0.0035002664913902147,-0.003840442546686045,0.0039321526760743245,0.0038986442945382754,8.585739518011094e-05,-0.006844208474295483,0.006855392175392733,-0.011383233064142365,0.007020642205596256,0.005911179768855531,-0.0030841020471440474,0.0009874248077865304,0.004125281970471157,-0.004226120365255612,0.000376626889849504,-0.003139680962425703,0.002299476415874987,0.0063816067603588225,0.005676491587054421,-0.007174794446413847,0.0008811276828724812,-0.0013082698583371621,0.006399149935937104,-0.008830453563670107,0.005774744592037723,0.0007077161446048439,5.892869852321854e-05,-0.00036379732197935893,0.003504470719724851,-0.005689488030925206,0.0014311911626293309,-0.0028058538525943684,-0.0015414589852512772,0.0019996333824739147,0.0017604445440868783,-0.0011853826767362027,-0.0027006595276842927,0.004260937056462004,0.006233378891202636,-0.0005184940323254695,-0.00601133157513465,0.0015792430040952135,0.00589275706280537,-0.0020917072168108036,-0.002014902527213752,0.000518607198601142,0.001476467507601353,0.0017878934356646823,-0.001200393748094088,0.003492798110908092,-0.0028957349005426392,0.007092062229645166,-0.0005988959334730894,-0.00351968539186927,0.0022705077513736523,-0.0026899219367998457,0.003556369313902069,6.611310499589958e-05,-0.002798072487138618,0.005704254489884013,0.0038060225439694793,-0.009628174310270445,0.010249736285397222,-0.0020698213217266266,0.002327550734294273,0.005375638960924789,-0.006838571042102543,0.005927302868987892,-0.00283437891364273,-0.003236122965823263,0.006054913076534012,0.0017438449184601008,-0.00013203201517836342,-0.005599192949562895,0.004284246159656174,-0.0015227295289623533,-0.001301425501696335,-0.0006023287809239691,0.004926879105063932,-0.00398610191047952,-0.002815773014756355,0.0028963948495061703,0.002549842350908343,0.002939314667425236,-0.006248168453707212,-0.0005380841246955983,-0.0015829042854868594,-0.001269969043475593,0.000996185868120946,-0.003688048837794833,0.0017142421903654811,-0.0006153930220944256,0.0069256770368270595,-0.004294964993429647,-0.003791727175658523,-0.0001688131589791108,0.003761935196740398,0.001757772692444555,-0.0027731843622425113,0.003346317650211092,0.0008766280242171711,-0.004857571587003777,0.007717080757439553,-0.004028072959813198,0.0033092313717333665,-0.0008473029194818302,0.007362155157798882,-0.006930398265247235,-0.0008038395579659763,-0.0014505631354569642,0.004322142468795344,0.002937733076284528,-0.005505126827501646,0.004562824016580259,-0.004407613496851667,0.0028032249750340153,0.003359661479405333,-0.0021972760160563747,-0.0025300330656758425,-0.0019444020770628906,0.00375450737114313,9.073594418600416e-06,-0.003262732706733732,0.0006626336773969042,0.00842156826756062,-0.007067900434424975,0.004759623356058375,-0.0013710045260159939,0.0034086832762760598,0.00010394728447495706,-0.0017430656501188327,-0.0014749958240099293,-0.0017691162126363582,-0.0006822241632358709,0.005646382343694952,-0.005477998614877046,0.0020852835309246335,-0.000797021093946286,0.0049755073826529255,-0.006269180039693802,0.00023657505169298539,-0.00074345211015774,0.0014892777684710021,-0.004084547338311891,-0.001752554464360795,0.0017742111189948217,-0.008426320910058276,0.00280497047747411,-0.0011190693470358715,-0.0018282080568816717,0.0009025561388966208,-0.006465734835533853,0.013110324110780771,-0.00825523068896766,0.0016533819354968677,-0.0009236880709899842,0.004258304077723826,-0.004790660005303812,0.00343188824970399,-0.003431610880091322,0.007326927601715214,-0.007123690878654828,0.0024551128012913394,-0.0024430181776464426,-0.004116320248093568,0.0020602132725493667,0.0008789326902481709,0.0006255057454312618,-0.006373537490535148,0.0013677462413767428,0.0027372066149850926,-0.0027516512644239276,-0.0058788351262490665,0.0045874141521272645,-0.0013995388378744108,0.0034754687240362513,-0.004566389521423718,-0.001991754578704818,0.0008646139404660366,0.0027958140530673836,-0.000496259473506063,0.0007259253293170759,0.0010964324403067941,0.0007440446841180548,-0.0012232707455509014,-0.005292480846510965,0.004230161957517582,0.002812059010195828,0.00017186416403855404,0.001660486806820878,-0.004744719785420441,0.006166324556720776,-0.0002813575701274091,-0.0019134132533108763,0.003637420066746966,-0.0032968136145976436,-0.0006618472295321674,-0.003118514466814958,-0.006000979159518873,0.0020244083021060777,0.0028382601799350742,-0.0018640397509883172,-0.0019946201401569046,-0.0046237894783837516,0.007215838078361053,-0.0031648751430719928,0.0020751001378861277,0.0045752425248873135,-0.0018044315834842694,0.00016828689682624437,-0.001377281479342861,-0.0037561882294581904,0.0010698698898359285,-0.0025417263096788345,-0.004102085431147683,0.006659362890978686,-2.2815423889779168e-05,-0.001731809782300639,0.0010388091171034993,0.0022377957317526393,-0.009842042565478258,0.009109267653875706,-0.008807236438773663,0.002732048849280623,0.0030879613601083344,-0.0037946856479829172,-0.006200263594502133,0.005119338164639443,-0.0046106302229639295,-5.815281168772835e-06,-0.0006465039118189429,0.003490686330827223,-0.0059065529417099945,0.011447897880119254,-0.003853240048729398,-0.004377757975009391,-0.0006981632201998714,0.00502862756441797,-0.005952408199226005,0.0026344730360038926,-0.0013246683953273917,0.003056983252050498,-0.0017895199047536713,0.0014587280633336901,0.00651010961120283,-0.0032256943806185756,-0.003754944516542323,0.006729367238016006,-0.0033375879105716176,0.0034625821810508966,-0.0027438216363141433,0.0009611984387172147,-0.003387651461806251,0.005063666634736143,-2.7377675351386714e-05,-0.009077668401462657,0.010987092617364936,-0.0038639445547071992,-0.002489806858289356,0.0016637177165089794,0.003309755374339609,-0.004408595355440176,0.002661712913548039,0.00320454004437856,-0.0019084836867434918,-0.006195341592743844,0.004310879377721937,-0.0024345644840968943,-0.0010623847292221267,0.0019325753630939568,-0.0007675243489142527,0.0011472386845106028,-0.00026507322117529585,-0.000263568139032043,-0.0013055097882735264,-0.0011269541531578459,-0.004132574957411669,0.005124441445148171,-0.00338253649047906,0.004244617552688806,-0.003135031893757653,-0.0061472047068359655,-0.0012187816962077138,0.0011726794924657232,0.00811432070656457,-0.007055413549277785,0.0032443640754863863,0.0006719799442625586,-0.006019817125787363,0.0023311499023687095,-0.0011158091750430971,0.0035166707315752305,-0.006706292886108783,-0.004005364941116467,0.009846361879778649,0.00012462500885209262,-0.00034634582661612,-0.0059906986953829535,0.004961869347170743,-0.004121984375498267,0.0056570468069142435,-0.0036849757294713536,0.0013695874469119784,-0.002440433252797903,-0.0034115030632837673,0.0021904440487772216,0.004282512205642126,0.010391893405009291,-0.014585214906810388,0.003405667223832307,0.0017124898579391036,0.0015353925821562343,0.00015068418097998222,-0.002640696684947486,0.004494149350512237,-0.0020635408344835174,-0.0003818304705783017,0.0010163308396579842,0.0013731579237172575,-0.004441987097215406,0.0009437349417849643,0.0021970546682278783,0.002715310778432489,0.0011887656542237373,0.0029248899333807945,0.007025065858992941,-0.0012256035180693088,-0.0004200358666856654,0.003954583386439008,-0.002637793777088196,0.0003576846898402709,-0.0016224409107195342,-0.0003835466849337667,-0.0004528798747704536,0.0014297418926175465,0.0064874863460128405,-0.003691330433853598,-0.0032861730850713656,0.004692253211444031,-0.0008085158864753828,-0.002111626293139617,0.001823422198603935,0.007291399958217635,-0.010368157205898265,0.0022873803920011003,0.002544013318394275,0.0016178356591329693,-0.003907222899845622,0.0039660053076169864,0.0032053642140547544,-0.010293730854644644,0.007084367570734226,-0.0037339355332914044,-0.0013019761464168151,-0.0025416539576204665,0.008229057606482437,-0.008415340577775958,0.0004224038700954726,0.0015212559908873878,0.003525227903730931,-0.006587672270471154,1.3400129992565818e-05,-0.0014943179915809762,0.00530379317977872,-0.004493056572356894,0.004119843883958751,-0.005302459430561545,0.004434718770402717,-0.0017987826120993116,0.00048238919734627686,-0.000560253165333527,-0.0001222080759017595,-0.0047707231239107,-0.0012706813068793777,0.005229255230352452,-0.007533944247751838,0.0024191518568846184,0.0017037851731532272,0.005048578035699091,-0.008291144502250375,-0.00031322861671214113,-0.002123846112505253,0.0007838572234895139,-0.005958264598406467,-0.001862963905733395,0.006608285187062769,-0.005979863991361522,-0.005026514323450213,0.004646364770030439,0.0037385137688950246,-0.006125018854369931,0.0022174714747515405,-0.004814215186039631,0.0006755766455535621,0.0018650470424043347,-0.0030001139620800476,0.0036577485352181577,-0.000997149841007769,-0.0010050649700259625,-0.0012207194563073139,-0.0020405512712934194,0.002346263210461608,-0.003967892291483758,0.004514262022376854,-0.0010277493327165792,-0.001138006557339327,0.004026993992315786,0.00272839998853458,-0.00858704212084034,0.007839211897291929,-0.004267041414196074,-0.0033012615675188676,0.002305129424357283,0.0030978458407297177,-0.001346853794944254,-0.00040160029817921196,0.0037184780332362665,0.0010300950996353752,-0.003662739867838706,-0.0006950638343359994,-0.00625632813787425,0.008201533082821176,-0.002682574524106581,0.0006064733164564863,0.002853799404543373,-0.005196170094393732,0.00023369483107287702,-0.00027995154726902905,-0.006447717101332693,0.007301852832414888,9.69601025425728e-05,0.0014324946698324936,-0.0006469997659995949,-0.000777668135573034,-0.0017542924479820915,0.002547683644559829,0.0031579880055523524,-0.0017974448029514545,0.0008132908903052327,-0.005221151991846826,0.0013553543494744871,-0.0020524771995834405,0.005452057029652552,-0.00052900453114172,-0.003059510866087077,-0.0035133813805922603,0.0027537336027962274,0.0013963117688948758,-0.0003498634066795922,-0.002038981743590906,-0.0016060156035690876,0.007048625543016976,-0.0037458879387826365,-0.0016817471114709914,0.009606559650344427,-0.005436988892796975,0.00326399194204816,-0.0029630056041945675,0.0009926842631963998,-0.005786020109968858,-0.00019537435717544688,0.00014699402441865724,0.0014794859063300097,-7.322325745122149e-06,-0.0028362364618342195,0.002400764309567845,-0.0012046804004813114,0.004365126775687411,0.004377228622314403,0.0032691962289773187,-0.0034592159405054486,0.002866484831114452,0.0009293373505520199,0.0003865440303992526,0.0018511656871886362,-0.0002322442404571052,-0.0025069648223962613,-0.001683498553696155,0.0024208819300467104,-0.0017241290362050826,-0.000961709148419084,0.002795135255728576,0.0008004623655979138,-0.0037451206054208317,0.0033233125215949076,0.00020543871786933384,0.005800064464965319,-0.0022836465877691457,-0.004748934476454119,0.009115671490920381,-0.005969181534794722,-0.00025157356626035176,-0.0014767427548562418,-0.004237204487266107,-2.0890146413792624e-05,8.744051161035757e-05,0.0031219091196632133,-0.002139520486788292,-0.0013409544495373161,3.570457821483672e-05,0.00406953177934023,-0.0030384043620347,-0.0018065224122252995,0.001843274032291104,0.0014358862368217256,-0.00371752651320599,0.004805761465243093,-0.0026995116226821796,-0.002477799815748826,0.0030725655112487636,0.00234112479368288,-0.004165487064559283,-0.00028918272585461944,-0.0010892414394928801,0.00805266521621364,-0.008483398269431843,-0.00036636527958557063,0.0018708730232774439,-0.0018149700762625795,0.003978684848371437,-0.002622341549651014,0.0008965606986326395,0.005578516666098135,-0.008399444527704948,0.006460010538332782,-0.00634606580177374,0.002853191518235664,0.001669788101350045,0.005227395344339985,-0.0016989639235433318,-0.0002524100350885787,-0.0007638581118245512,-0.0011949673236404284,0.0033801344684316202,-0.003512001978156142,-0.002094545965884957,0.004528728430813349,0.0019962491310207197,-0.007282907832174314,-0.004342633143666034,0.005869722029668095,0.002512062167130422,-0.0017449112733625954,-0.0021587620702004785,0.002533689202977238,0.005234651205774245,-0.0030345361221220846,-0.0005367424838958648,0.00032132114428447907,-0.0018414651878018511,0.0002036282732067285,0.0063106996981614205,-0.0059584570838210026,0.0031247549427079135,-0.003263491505296182,-0.002183640453476344,-0.00028017102039842157,0.003293852178330709,-0.0022240776918381693,0.005704639875370624,-0.004378117175583724,0.0008038644721951435,0.0016077124292536633,-0.005471390697981617,0.00042463143438497967,0.0028895166677571477,0.0038921468248913505,-0.0003426128829933244,-0.0030433251240430228,0.0008987356403886278,0.0011466140817961922,-0.0024251348874799773,0.005513427090223569,-0.00537474226421185,-0.004210869983188047,0.004833747354945305,-0.0004672705780738495,-0.006886332549973761,-0.00045876911524842743,0.004707085828672562,-0.00025417194916510716,-0.0014835585257882522,0.00011113392964751757,0.0003477321989790006,0.0019895944301405186,-0.0011777941386762975,-0.0031517762085143224,0.001025129641918666,0.0048507605190049865,0.004241356197148134,-0.0033128000573303573,-0.002701713043235905,0.001983564740443841,0.002559388224122365,-0.0006283229159296909,-0.004013725047992589,0.0030621934388609935,-0.003148984659278056,-0.0010547927684628317,0.0013744661364278412,0.0018220029474302845,-0.004744943904825291,0.0014298709809988325,-0.0003877948212500325,0.0013511057136803234,-0.001168624331346357,-0.0003669631002765634,-0.0036579996279579113,0.0038480868157974735,0.0013265763233315942,-0.004298541259537931,-0.0021674874440443287,0.0025699944565083376,-0.0017528414054791346,0.003970378719312489,0.00047484042173591326,-0.0016201505279191883,-0.006387861917062194,0.006977502723963058,-0.0013518102011973714,0.0016956507883754334,-0.003302325321120567,0.004413509677628665,-0.0024061211859865285,-0.002011679278668509,-0.00022896228930488035,0.0028132369058926528,-0.006788545163905781,0.006518038596313688,0.003372505349340586,-0.0031293380990374247,0.003894395459428151,0.005853094377663911,0.0005451827972488495,0.003336459055822598,-0.004335322688961316,0.0011791285516781671,-0.0014210458574799969,-0.0008366747562468436,-0.0010846379173251684,0.006218443043267745,-0.0037144387808265202,0.007740334615434025,-0.0021299948272749374,0.0011128287438482163,-0.0033453825392392523,0.006890066772555856,-0.004726930565618932,0.0026361081277841577,-0.00018431146523274967,0.0017944803192733493,0.0005274987034586307,-0.0030164712659566622,-0.0034488034688242766,0.0005560315530824787,-0.0070207894078660295,0.004428647890056422,-0.0024078149681189803,0.003904028755138287,-0.0031405493735514184,0.0031947817630038535,-0.0006717787601267232,0.00324986062922186,0.002171349220851258,0.0008615906409854907,-0.005546303946397094,0.002709257138516742,-0.0012468337169646618,-0.0018111970440891345,0.0006501160532109913,-0.0005550643908933704,-0.00459999227729813,0.0033522004553647095,