,0,1,2,3,4,5,6,7,8,9,10,11,12,13,14,15,16,17,18,19,20,21,22,23,24,25,26,27,28,29,30,31,32,33,34,35,36,37,38,39,40,41,42,43,44,45,46,47,48,49,50,51,52,53,54,55,56,57,58,59,60,61,62,63,64,65,66,67,68,69,70,71,72,73,74,75,76,77,78,79,80,81,82,83,84,85,86,87,88,89,90,91,92,93,94,95,96,97,98,99,100,101,102,103,104,105,106,107,108,109,110,111,112,113,114,115,116,117,118,119,120,121,122,123,124,125,126,127,128,129,130,131,132,133,134,135,136,137,138,139,140,141,142,143,144,145,146,147,148,149,150,151,152,153,154,155,156,157,158,159,160,161,162,163,164,165,166,167,168,169,170,171,172,173,174,175,176,177,178,179,180,181,182,183,184,185,186,187,188,189,190,191,192,193,194,195,196,197,198,199,200,201,202,203,204,205,206,207,208,209,210,211,212,213,214,215,216,217,218,219,220,221,222,223,224,225,226,227,228,229,230,231,232,233,234,235,236,237,238,239,240,241,242,243,244,245,246,247,248,249,250,251,252,253,254,255,256,257,258,259,260,261,262,263,264,265,266,267,268,269,270,271,272,273,274,275,276,277,278,279,280,281,282,283,284,285,286,287,288,289,290,291,292,293,294,295,296,297,298,299,300,301,302,303,304,305,306,307,308,309,310,311,312,313,314,315,316,317,318,319,320,321,322,323,324,325,326,327,328,329,330,331,332,333,334,335,336,337,338,339,340,341,342,343,344,345,346,347,348,349,350,351,352,353,354,355,356,357,358,359,360,361,362,363,364,365,366,367,368,369,370,371,372,373,374,375,376,377,378,379,380,381,382,383,384,385,386,387,388,389,390,391,392,393,394,395,396,397,398,399,400,401,402,403,404,405,406,407,408,409,410,411,412,413,414,415,416,417,418,419,420,421,422,423,424,425,426,427,428,429,430,431,432,433,434,435,436,437,438,439,440,441,442,443,444,445,446,447,448,449,450,451,452,453,454,455,456,457,458,459,460,461,462,463,464,465,466,467,468,469,470,471,472,473,474,475,476,477,478,479,480,481,482,483,484,485,486,487,488,489,490,491,492,493,494,495,496,497,498,499,500,501,502,503,504,505,506,507,508,509,510,511,512,513,514,515,516,517,518,519,520,521,522,523,524,525,526,527,528,529,530,531,532,533,534,535,536,537,538,539,540,541,542,543,544,545,546,547,548,549,550,551,552,553,554,555,556,557,558,559,560,561,562,563,564,565,566,567,568,569,570,571,572,573,574,575,576,577,578,579,580,581,582,583,584,585,586,587,588,589,590,591,592,593,594,595,596,597,598,599,600,601,602,603,604,605,606,607,608,609,610,611,612,613,614,615,616,617,618,619,620,621,622,623,624,625,626,627,628,629,630,631,632,633,634,635,636,637,638,639,640,641,642,643,644,645,646,647,648,649,650,651,652,653,654,655,656,657,658,659,660,661,662,663,664,665,666,667,668,669,670,671,672,673,674,675,676,677,678,679,680,681,682,683,684,685,686,687,688,689,690,691,692,693,694,695,696,697,698,699,700,701,702,703,704,705,706,707,708,709,710,711,712,713,714,715,716,717,718,719,720,721,722,723,724,725,726,727,728,729,730,731,732,733,734,735,736,737,738,739,740,741,742,743,744,745,746,747,748,749,750,751,752,753,754,755,756,757,758,759,760,761,762,763,764,765,766,767,768,769,770,771,772,773,774,775,776,777,778,779,780,781,782,783,784,785,786,787,788,789,790,791,792,793,794,795,796,797,798,799,800,801,802,803,804,805,806,807,808,809,810,811,812,813,814,815,816,817,818,819,820,821,822,823,824,825,826,827,828,829,830,831,832,833,834,835,836,837,838,839,840,841,842,843,844,845,846,847,848,849,850,851,852,853,854,855,856,857,858,859,860,861,862,863,864,865,866,867,868,869,870,871,872,873,874,875,876,877,878,879,880,881,882,883,884,885,886,887,888,889,890,891,892,893,894,895,896,897,898,899,900,901,902,903,904,905,906,907,908,909,910,911,912,913,914,915,916,917,918,919,920,921,922,923,924,925,926,927,928,929,930,931,932,933,934,935,936,937,938,939,940,941,942,943,944,945,946,947,948,949,950,951,952,953,954,955,956,957,958,959,960,961,962,963,964,965,966,967,968,969,970,971,972,973,974,975,976,977,978,979,980,981,982,983,984,985,986,987,988,989,990,991,992,993,994,995,996,997,998,999,1000,1001,1002,1003,1004,1005,1006,1007,1008,1009,1010,1011,1012,1013,1014,1015,1016,1017,1018,1019,1020,1021,1022,1023,1024,1025,1026,1027,1028,1029,1030,1031,1032,1033,1034,1035,1036,1037,1038,1039,1040,1041,1042,1043,1044,1045,1046,1047,1048,1049,1050,1051,1052,1053,1054,1055,1056,1057,1058,1059,1060,1061,1062,1063,1064,1065,1066,1067,1068,1069,1070,1071,1072,1073,1074,1075,1076,1077,1078,1079,1080,1081,1082,1083,1084,1085,1086,1087,1088,1089,1090,1091,1092,1093,1094,1095,1096,1097,1098,1099,1100,1101,1102,1103,1104,1105,1106,1107,1108,1109,1110,1111,1112,1113,1114,1115,1116,1117,1118,1119,1120,1121,1122,1123,1124,1125,1126,1127,1128,1129,1130,1131,1132,1133,1134,1135,1136,1137,1138,1139,1140,1141,1142,1143,1144,1145,1146,1147,1148,1149,1150,1151,1152,1153,1154,1155,1156,1157,1158,1159,1160,1161,1162,1163,1164,1165,1166,1167,1168,1169,1170,1171,1172,1173,1174,1175,1176,1177,1178,1179,1180,1181,1182,1183,1184,1185,1186,1187,1188,1189,1190,1191,1192,1193,1194,1195,1196,1197,1198,1199,1200,1201,1202,1203,1204,1205,1206,1207,1208,1209,1210,1211,1212,1213,1214,1215,1216,1217,1218,1219,1220,1221,1222,1223,1224,1225,1226,1227,1228,1229,1230,1231,1232,1233,1234,1235,1236,1237,1238,1239,1240,1241,1242,1243,1244,1245,1246,1247,1248,1249,1250,1251,1252,1253,1254,1255,1256,1257,1258,1259,1260,1261,1262,1263,1264,1265,1266,1267,1268,1269,1270,1271,1272,1273,1274,1275,1276,1277,1278,1279,1280,1281,1282,1283,1284,1285,1286,1287,1288,1289,1290,1291,1292,1293,1294,1295,1296,1297,1298,1299,1300,1301,1302,1303,1304,1305,1306,1307,1308,1309,1310,1311,1312,1313,1314,1315,1316,1317,1318,1319,1320,1321,1322,1323,1324,1325,1326,1327,1328,1329,1330,1331,1332,1333,1334,1335,1336,1337,1338,1339,1340,1341,1342,1343,1344,1345,1346,1347,1348,1349,1350,1351,1352,1353,1354,1355,1356,1357,1358,1359,1360,1361,1362,1363,1364,1365,1366,1367,1368,1369,1370,1371,1372,1373,1374,1375,1376,1377,1378,1379,1380,1381,1382,1383,1384,1385,1386,1387,1388,1389,1390,1391,1392,1393,1394,1395,1396,1397,1398,1399,1400,1401,1402,1403,1404,1405,1406,1407,1408,1409,1410,1411,1412,1413,1414,1415,1416,1417,1418,1419,1420,1421,1422,1423,1424,1425,1426,1427,1428,1429,1430,1431,1432,1433,1434,1435,1436,1437,1438,1439,1440,1441,1442,1443,1444,1445,1446,1447,1448,1449,1450,1451,1452,1453,1454,1455,1456,1457,1458,1459,1460,1461,1462,1463,1464,1465,1466,1467,1468,1469,1470,1471,1472,1473,1474,1475,1476,1477,1478,1479,1480,1481,1482,1483,1484,1485,1486,1487,1488,1489,1490,1491,1492,1493,1494,1495,1496,1497,1498,1499,1500,1501,1502,1503,1504,1505,1506,1507,1508,1509,1510,1511,1512,1513,1514,1515,1516,1517,1518,1519,1520,1521,1522,1523,1524,1525,1526,1527,1528,1529,1530,1531,1532,1533,1534,1535,1536,1537,1538,1539,1540,1541,1542,1543,1544,1545,1546,1547,1548,1549,1550,1551,1552,1553,1554,1555,1556,1557,1558,1559,1560,1561,1562,1563,1564,1565,1566,1567,1568,1569,1570,1571,1572,1573,1574,1575,1576,1577,1578,1579,1580,1581,1582,1583,1584,1585,1586,1587,1588,1589,1590,1591,1592,1593,1594,1595,1596,1597,1598,1599,1600,1601,1602,1603,1604,1605,1606,1607,1608,1609,1610,1611,1612,1613,1614,1615,1616,1617,1618,1619,1620,1621,1622,1623,1624,1625,1626,1627,1628,1629,1630,1631,1632,1633,1634,1635,1636,1637,1638,1639,1640,1641,1642,1643,1644,1645,1646,1647,1648,1649,1650,1651,1652,1653,1654,1655,1656,1657,1658,1659,1660,1661,1662,1663,1664,1665,1666,1667,1668,1669,1670,1671,1672,1673,1674,1675,1676,1677,1678,1679,1680,1681,1682,1683,1684,1685,1686,1687,1688,1689,1690,1691,1692,1693,1694,1695,1696,1697,1698,1699,1700,1701,1702,1703,1704,1705,1706,1707,1708,1709,1710,1711,1712,1713,1714,1715,1716,1717,1718,1719,1720,1721,1722,1723,1724,1725,1726,1727,1728,1729,1730,1731,1732,1733,1734,1735,1736,1737,1738,1739,1740,1741,1742,1743,1744,1745,1746,1747,1748,1749,1750,1751,1752,1753,1754,1755,1756,1757,1758,1759,1760,1761,1762,1763,1764,1765,1766,1767,1768,1769,1770,1771,1772,1773,1774,1775,1776,1777,1778,1779,1780,1781,1782,1783,1784,1785,1786,1787,1788,1789,1790,1791,1792,1793,1794,1795,1796,1797,1798,1799,1800,1801,1802,1803,1804,1805,1806,1807,1808,1809,1810,1811,1812,1813,1814,1815,1816,1817,1818,1819,1820,1821,1822,1823,1824,1825,1826,1827,1828,1829,1830,1831,1832,1833,1834,1835,1836,1837,1838,1839,1840,1841,1842,1843,1844,1845,1846,1847,1848,1849,1850,1851,1852,1853,1854,1855,1856,1857,1858,1859,1860,1861,1862,1863,1864,1865,1866,1867,1868,1869,1870,1871,1872,1873,1874,1875,1876,1877,1878,1879,1880,1881,1882,1883,1884,1885,1886,1887,1888,1889,1890,1891,1892,1893,1894,1895,1896,1897,1898,1899,1900,1901,1902,1903,1904,1905,1906,1907,1908,1909,1910,1911,1912,1913,1914,1915,1916,1917,1918,1919,1920,1921,1922,1923,1924,1925,1926,1927,1928,1929,1930,1931,1932,1933,1934,1935,1936,1937,1938,1939,1940,1941,1942,1943,1944,1945,1946,1947,1948,1949,1950,1951,1952,1953,1954,1955,1956,1957,1958,1959,1960,1961,1962,1963,1964,1965,1966,1967,1968,1969,1970,1971,1972,1973,1974,1975,1976,1977,1978,1979,1980,1981,1982,1983,1984,1985,1986,1987,1988,1989,1990,1991,1992,1993,1994,1995,1996,1997,1998,1999,2000,2001,2002,2003,2004,2005,2006,2007,2008,2009,2010,2011,2012,2013,2014,2015,2016,2017,2018,2019,2020,2021,2022,2023,2024,2025,2026,2027,2028,2029,2030,2031,2032,2033,2034,2035,2036,2037,2038,2039,2040,2041,2042,2043,2044,2045,2046,2047,2048,2049,2050,2051,2052,2053,2054,2055,2056,2057,2058,2059,2060,2061,2062,2063,2064,2065,2066,2067,2068,2069,2070,2071,2072,2073,2074,2075,2076,2077,2078,2079,2080,2081,2082,2083,2084,2085,2086,2087,2088,2089,2090,2091,2092,2093,2094,2095,2096,2097,2098,2099,2100,2101,2102,2103,2104,2105,2106,2107,2108,2109,2110,2111,2112,2113,2114,2115,2116,2117,2118,2119,2120,2121,2122,2123,2124,2125,2126,2127,2128,2129,2130,2131,2132,2133,2134,2135,2136,2137,2138,2139,2140,2141,2142,2143,2144,2145,2146,2147,2148,2149,2150,2151,2152,2153,2154,2155,2156,2157,2158,2159,2160,2161,2162,2163,2164,2165,2166,2167,2168,2169,2170,2171,2172,2173,2174,2175,2176,2177,2178,2179,2180,2181,2182,2183,2184,2185,2186,2187,2188,2189,2190,2191,2192,2193,2194,2195,2196,2197,2198,2199,2200,2201,2202,2203,2204,2205,2206,2207,2208,2209,2210,2211,2212,2213,2214,2215,2216,2217,2218,2219,2220,2221,2222,2223,2224,2225,2226,2227,2228,2229,2230,2231,2232,2233,2234,2235,2236,2237,2238,2239,2240,2241,2242,2243,2244,2245,2246,2247,2248,2249,2250,2251,2252,2253,2254,2255,2256,2257,2258,2259,2260,2261,2262,2263,2264,2265,2266,2267,2268,2269,2270,2271,2272,2273,2274,2275,2276,2277,2278,2279,2280,2281,2282,2283,2284,2285,2286,2287,2288,2289,2290,2291,2292,2293,2294,2295,2296,2297,2298,2299,2300,2301,2302,2303,2304,2305,2306,2307,2308,2309,2310,2311,2312,2313,2314,2315,2316,2317,2318,2319,2320,2321,2322,2323,2324,2325,2326,2327,2328,2329,2330,2331,2332,2333,2334,2335,2336,2337,2338,2339,2340,2341,2342,2343,2344,2345,2346,2347,2348,2349,2350,2351,2352,2353,2354,2355,2356,2357,2358,2359,2360,2361,2362,2363,2364,2365,2366,2367,2368,2369,2370,2371,2372,2373,2374,2375,2376,2377,2378,2379,2380,2381,2382,2383,2384,2385,2386,2387,2388,2389,2390,2391,2392,2393,2394,2395,2396,2397,2398,2399,2400,2401,2402,2403,2404,2405,2406,2407,2408,2409,2410,2411,2412,2413,2414,2415,2416,2417,2418,2419,2420,2421,2422,2423,2424,2425,2426,2427,2428,2429,2430,2431,2432,2433,2434,2435,2436,2437,2438,2439,2440,2441,2442,2443,2444,2445,2446,2447,2448,2449,2450,2451,2452,2453,2454,2455,2456,2457,2458,2459,2460,2461,2462,2463,2464,2465,2466,2467,2468,2469,2470,2471,2472,2473,2474,2475,2476,2477,2478,2479,2480,2481,2482,2483,2484,2485,2486,2487,2488,2489,2490,2491,2492,2493,2494,2495,2496,2497,2498,2499,2500,2501,2502,2503,2504,2505,2506,2507,2508,2509,2510,2511,2512,2513,2514,2515,2516,2517,2518,2519,2520,2521,2522,2523,2524,2525,2526,2527,2528,2529,2530,2531,2532,2533,2534,2535,2536,2537,2538,2539,2540,2541,2542,2543,2544,2545,2546,2547,2548,2549,2550,2551,2552,2553,2554,2555,2556,2557,2558,2559,2560,2561,2562,2563,2564,2565,2566,2567,2568,2569,2570,2571,2572,2573,2574,2575,2576,2577,2578,2579,2580,2581,2582,2583,2584,2585,2586,2587,2588,2589,2590,2591,2592,2593,2594,2595,2596,2597,2598,2599,2600,2601,2602,2603,2604,2605,2606,2607,2608,2609,2610,2611,2612,2613,2614,2615,2616,2617,2618,2619,2620,2621,2622,2623,2624,2625,2626,2627,2628,2629,2630,2631,2632,2633,2634,2635,2636,2637,2638,2639,2640,2641,2642,2643,2644,2645,2646,2647,2648,2649,2650,2651,2652,2653,2654,2655,2656,2657,2658,2659,2660,2661,2662,2663,2664,2665,2666,2667,2668,2669,2670,2671,2672,2673,2674,2675,2676,2677,2678,2679,2680,2681,2682,2683,2684,2685,2686,2687,2688,2689,2690,2691,2692,2693,2694,2695,2696,2697,2698,2699,2700,2701,2702,2703,2704,2705,2706,2707,2708,2709,2710,2711,2712,2713,2714,2715,2716,2717,2718,2719,2720,2721,2722,2723,2724,2725,2726,2727,2728,2729,2730,2731,2732,2733,2734,2735,2736,2737,2738,2739,2740,2741,2742,2743,2744,2745,2746,2747,2748,2749,2750,2751,2752,2753,2754,2755,2756,2757,2758,2759,2760,2761,2762,2763,2764,2765,2766,2767,2768,2769,2770,2771,2772,2773,2774,2775,2776,2777,2778,2779,2780,2781,2782,2783,2784,2785,2786,2787,2788,2789,2790,2791,2792,2793,2794,2795,2796,2797,2798,2799,2800,2801,2802,2803,2804,2805,2806,2807,2808,2809,2810,2811,2812,2813,2814,2815,2816,2817,2818,2819,2820,2821,2822,2823,2824,2825,2826,2827,2828,2829,2830,2831,2832,2833,2834,2835,2836,2837,2838,2839,2840,2841,2842,2843,2844,2845,2846,2847,2848,2849,2850,2851,2852,2853,2854,2855,2856,2857,2858,2859,2860,2861,2862,2863,2864,2865,2866,2867,2868,2869,2870,2871,2872,2873,2874,2875,2876,2877,2878,2879,2880,2881,2882,2883,2884,2885,2886,2887,2888,2889,2890,2891,2892,2893,2894,2895,2896,2897,2898,2899,2900,2901,2902,2903,2904,2905,2906,2907,2908,2909,2910,2911,2912,2913,2914,2915,2916,2917,2918,2919,2920,2921,2922,2923,2924,2925,2926,2927,2928,2929,2930,2931,2932,2933,2934,2935,2936,2937,2938,2939,2940,2941,2942,2943,2944,2945,2946,2947,2948,2949,2950,2951,2952,2953,2954,2955,2956,2957,2958,2959,2960,2961,2962,2963,2964,2965,2966,2967,2968,2969,2970,2971,2972,2973,2974,2975,2976,2977,2978,2979,2980,2981,2982,2983,2984,2985,2986,2987,2988,2989,2990,2991,2992,2993,2994,2995,2996,2997,2998,2999,3000,3001,3002,3003,3004,3005,3006,3007,3008,3009,3010,3011,3012,3013,3014,3015,3016,3017,3018,3019,3020,3021,3022,3023,3024,3025,3026,3027,3028,3029,3030,3031,3032,3033,3034,3035,3036,3037,3038,3039,3040,3041,3042,3043,3044,3045,3046,3047,3048,3049,3050,3051,3052,3053,3054,3055,3056,3057,3058,3059,3060,3061,3062,3063,3064,3065,3066,3067,3068,3069,3070,3071,3072,3073,3074,3075,3076,3077,3078,3079,3080,3081,3082,3083,3084,3085,3086,3087,3088,3089,3090,3091,3092,3093,3094,3095,3096,3097,3098,3099,3100,3101,3102,3103,3104,3105,3106,3107,3108,3109,3110,3111,3112,3113,3114,3115,3116,3117,3118,3119,3120,3121,3122,3123,3124,3125,3126,3127,3128,3129,3130,3131,3132,3133,3134,3135,3136,3137,3138,3139,3140,3141,3142,3143,3144,3145,3146,3147,3148,3149,3150,3151,3152,3153,3154,3155,3156,3157,3158,3159,3160,3161,3162,3163,3164,3165,3166,3167,3168,3169,3170,3171,3172,3173,3174,3175,3176,3177,3178,3179,3180,3181,3182,3183,3184,3185,3186,3187,3188,3189,3190,3191,3192,3193,3194,3195,3196,3197,3198,3199,3200,3201,3202,3203,3204,3205,3206,3207,3208,3209,3210,3211,3212,3213,3214,3215,3216,3217,3218,3219,3220,3221,3222,3223,3224,3225,3226,3227,3228,3229,3230,3231,3232,3233,3234,3235,3236,3237,3238,3239,3240,3241,3242,3243,3244,3245,3246,3247,3248,3249,3250,3251,3252,3253,3254,3255,3256,3257,3258,3259,3260,3261,3262,3263,3264,3265,3266,3267,3268,3269,3270,3271,3272,3273,3274,3275,3276,3277,3278,3279,3280,3281,3282,3283,3284,3285,3286,3287,3288,3289,3290,3291,3292,3293,3294,3295,3296,3297,3298,3299,3300,3301,3302,3303,3304,3305,3306,3307,3308,3309,3310,3311,3312,3313,3314,3315,3316,3317,3318,3319,3320,3321,3322,3323,3324,3325,3326,3327,3328,3329,3330,3331,3332,3333,3334,3335,3336,3337,3338,3339,3340,3341,3342,3343,3344,3345,3346,3347,3348,3349,3350,3351,3352,3353,3354,3355,3356,3357,3358,3359,3360,3361,3362,3363,3364,3365,3366,3367,3368,3369,3370,3371,3372,3373,3374,3375,3376,3377,3378,3379,3380,3381,3382,3383,3384,3385,3386,3387,3388,3389,3390,3391,3392,3393,3394,3395,3396,3397,3398,3399,3400,3401,3402,3403,3404,3405,3406,3407,3408,3409,3410,3411,3412,3413,3414,3415,3416,3417,3418,3419,3420,3421,3422,3423,3424,3425,3426,3427,3428,3429,3430,3431,3432,3433,3434,3435,3436,3437,3438,3439,3440,3441,3442,3443,3444,3445,3446,3447,3448,3449,3450,3451,3452,3453,3454,3455,3456,3457,3458,3459,3460,3461,3462,3463,3464,3465,3466,3467,3468,3469,3470,3471,3472,3473,3474,3475,3476,3477,3478,3479,3480,3481,3482,3483,3484,3485,3486,3487,3488,3489,3490,3491,3492,3493,3494,3495,3496,3497,3498,3499,3500,3501,3502,3503,3504,3505,3506,3507,3508,3509,3510,3511,3512,3513,3514,3515,3516,3517,3518,3519,3520,3521,3522,3523,3524,3525,3526,3527,3528,3529,3530,3531,3532,3533,3534,3535,3536,3537,3538,3539,3540,3541,3542,3543,3544,3545,3546,3547,3548,3549,3550,3551,3552,3553,3554,3555,3556,3557,3558,3559,3560,3561,3562,3563,3564,3565,3566,3567,3568,3569,3570,3571,3572,3573,3574,3575,3576,3577,3578,3579,3580,3581,3582,3583,3584,3585,3586,3587,3588,3589,3590,3591,3592,3593,3594,3595,3596,3597,3598,3599,3600,3601,3602,3603,3604,3605,3606,3607,3608,3609,3610,3611,3612,3613,3614,3615,3616,3617,3618,3619,3620,3621,3622,3623,3624,3625,3626,3627,3628,3629,3630,3631,3632,3633,3634,3635,3636,3637,3638,3639,3640,3641,3642,3643,3644,3645,3646,3647,3648,3649,3650,3651,3652,3653,3654,3655,3656,3657,3658,3659,3660,3661,3662,3663,3664,3665,3666,3667,3668,3669,3670,3671,3672,3673,3674,3675,3676,3677,3678,3679,3680,3681,3682,3683,3684,3685,3686,3687,3688,3689,3690,3691,3692,3693,3694,3695,3696,3697,3698,3699,3700,3701,3702,3703,3704,3705,3706,3707,3708,3709,3710,3711,3712,3713,3714,3715,3716,3717,3718,3719,3720,3721,3722,3723,3724,3725,3726,3727,3728,3729,3730,3731,3732,3733,3734,3735,3736,3737,3738,3739,3740,3741,3742,3743,3744,3745,3746,3747,3748,3749,3750,3751,3752,3753,3754,3755,3756,3757,3758,3759,3760,3761,3762,3763,3764,3765,3766,3767,3768,3769,3770,3771,3772,3773,3774,3775,3776,3777,3778,3779,3780,3781,3782,3783,3784,3785,3786,3787,3788,3789,3790,3791,3792,3793,3794,3795,3796,3797,3798,3799,3800,3801,3802,3803,3804,3805,3806,3807,3808,3809,3810,3811,3812,3813,3814,3815,3816,3817,3818,3819,3820,3821,3822,3823,3824,3825,3826,3827,3828,3829,3830,3831,3832,3833,3834,3835,3836,3837,3838,3839,3840,3841,3842,3843,3844,3845,3846,3847,3848,3849,3850,3851,3852,3853,3854,3855,3856,3857,3858,3859,3860,3861,3862,3863,3864,3865,3866,3867,3868,3869,3870,3871,3872,3873,3874,3875,3876,3877,3878,3879,3880,3881,3882,3883,3884,3885,3886,3887,3888,3889,3890,3891,3892,3893,3894,3895,3896,3897,3898,3899,3900,3901,3902,3903,3904,3905,3906,3907,3908,3909,3910,3911,3912,3913,3914,3915,3916,3917,3918,3919,3920,3921,3922,3923,3924,3925,3926,3927,3928,3929,3930,3931,3932,3933,3934,3935,3936,3937,3938,3939,3940,3941,3942,3943,3944,3945,3946,3947,3948,3949,3950,3951,3952,3953,3954,3955,3956,3957,3958,3959,3960,3961,3962,3963,3964,3965,3966,3967,3968,3969,3970,3971,3972,3973,3974,3975,3976,3977,3978,3979,3980,3981,3982,3983,3984,3985,3986,3987,3988,3989,3990,3991,3992,3993,3994,3995,3996,3997,3998,3999,4000,4001,4002,4003,4004,4005,4006,4007,4008,4009,4010,4011,4012,4013,4014,4015,4016,4017,4018,4019,4020,4021,4022,4023,4024,4025,4026,4027,4028,4029,4030,4031,4032,4033,4034,4035,4036,4037,4038,4039,4040,4041,4042,4043,4044,4045,4046,4047,4048,4049,4050,4051,4052,4053,4054,4055,4056,4057,4058,4059,4060,4061,4062,4063,4064,4065,4066,4067,4068,4069,4070,4071,4072,4073,4074,4075,4076,4077,4078,4079,4080,4081,4082,4083,4084,4085,4086,4087,4088,4089,4090,4091,4092,4093,4094,4095,4096,4097,4098,4099,4100,4101,4102,4103,4104,4105,4106,4107,4108,4109,4110,4111,4112,4113,4114,4115,4116,4117,4118,4119,4120,4121,4122,4123,4124,4125,4126,4127,4128,4129,4130,4131,4132,4133,4134,4135,4136,4137,4138,4139,4140,4141,4142,4143,4144,4145,4146,4147,4148,4149,4150,4151,4152,4153,4154,4155,4156,4157,4158,4159,4160,4161,4162,4163,4164,4165,4166,4167,4168,4169,4170,4171,4172,4173,4174,4175,4176,4177,4178,4179,4180,4181,4182,4183,4184,4185,4186,4187,4188,4189,4190,4191,4192,4193,4194,4195,4196,4197,4198,4199,4200,4201,4202,4203,4204,4205,4206,4207,4208,4209,4210,4211,4212,4213,4214,4215,4216,4217,4218,4219,4220,4221,4222,4223,4224,4225,4226,4227,4228,4229,4230,4231,4232,4233,4234,4235,4236,4237,4238,4239,4240,4241,4242,4243,4244,4245,4246,4247,4248,4249,4250,4251,4252,4253,4254,4255,4256,4257,4258,4259,4260,4261,4262,4263,4264,4265,4266,4267,4268,4269,4270,4271,4272,4273,4274,4275,4276,4277,4278,4279,4280,4281,4282,4283,4284,4285,4286,4287,4288,4289,4290,4291,4292,4293,4294,4295,4296,4297,4298,4299,4300,4301,4302,4303,4304,4305,4306,4307,4308,4309,4310,4311,4312,4313,4314,4315,4316,4317,4318,4319,4320,4321,4322,4323,4324,4325,4326,4327,4328,4329,4330,4331,4332,4333,4334,4335,4336,4337,4338,4339,4340,4341,4342,4343,4344,4345,4346,4347,4348,4349,4350,4351,4352,4353,4354,4355,4356,4357,4358,4359,4360,4361,4362,4363,4364,4365,4366,4367,4368,4369,4370,4371,4372,4373,4374,4375,4376,4377,4378,4379,4380,4381,4382,4383,4384,4385,4386,4387,4388,4389,4390,4391,4392,4393,4394,4395,4396,4397,4398,4399,4400,4401,4402,4403,4404,4405,4406,4407,4408,4409,4410,4411,4412,4413,4414,4415,4416,4417,4418,4419,4420,4421,4422,4423,4424,4425,4426,4427,4428,4429,4430,4431,4432,4433,4434,4435,4436,4437,4438,4439,4440,4441,4442,4443,4444,4445,4446,4447,4448,4449,4450,4451,4452,4453,4454,4455,4456,4457,4458,4459,4460,4461,4462,4463,4464,4465,4466,4467,4468,4469,4470,4471,4472,4473,4474,4475,4476,4477,4478,4479,4480,4481,4482,4483,4484,4485,4486,4487,4488,4489,4490,4491,4492,4493,4494,4495,4496,4497,4498,4499,4500,4501,4502,4503,4504,4505,4506,4507,4508,4509,4510,4511,4512,4513,4514,4515,4516,4517,4518,4519,4520,4521,4522,4523,4524,4525,4526,4527,4528,4529,4530,4531,4532,4533,4534,4535,4536,4537,4538,4539,4540,4541,4542,4543,4544,4545,4546,4547,4548,4549,4550,4551,4552,4553,4554,4555,4556,4557,4558,4559,4560,4561,4562,4563,4564,4565,4566,4567,4568,4569,4570,4571,4572,4573,4574,4575,4576,4577,4578,4579,4580,4581,4582,4583,4584,4585,4586,4587,4588,4589,4590,4591,4592,4593,4594,4595,4596,4597,4598,4599,4600,4601,4602,4603,4604,4605,4606,4607,4608,4609,4610,4611,4612,4613,4614,4615,4616,4617,4618,4619,4620,4621,4622,4623,4624,4625,4626,4627,4628,4629,4630,4631,4632,4633,4634,4635,4636,4637,4638,4639,4640,4641,4642,4643,4644,4645,4646,4647,4648,4649,4650,4651,4652,4653,4654,4655,4656,4657,4658,4659,4660,4661,4662,4663,4664,4665,4666,4667,4668,4669,4670,4671,4672,4673,4674,4675,4676,4677,4678,4679,4680,4681,4682,4683,4684,4685,4686,4687,4688,4689,4690,4691,4692,4693,4694,4695,4696,4697,4698,4699,4700,4701,4702,4703,4704,4705,4706,4707,4708,4709,4710,4711,4712,4713,4714,4715,4716,4717,4718,4719,4720,4721,4722,4723,4724,4725,4726,4727,4728,4729,4730,4731,4732,4733,4734,4735,4736,4737,4738,4739,4740,4741,4742,4743,4744,4745,4746,4747,4748,4749,4750,4751,4752,4753,4754,4755,4756,4757,4758,4759,4760,4761,4762,4763,4764,4765,4766,4767,4768,4769,4770,4771,4772,4773,4774,4775,4776,4777,4778,4779,4780,4781,4782,4783,4784,4785,4786,4787,4788,4789,4790,4791,4792,4793,4794,4795,4796,4797,4798,4799,4800,4801,4802,4803,4804,4805,4806,4807,4808,4809,4810,4811,4812,4813,4814,4815,4816,4817,4818,4819,4820,4821,4822,4823,4824,4825,4826,4827,4828,4829,4830,4831,4832,4833,4834,4835,4836,4837,4838,4839,4840,4841,4842,4843,4844,4845,4846,4847,4848,4849,4850,4851,4852,4853,4854,4855,4856,4857,4858,4859,4860,4861,4862,4863,4864,4865,4866,4867,4868,4869,4870,4871,4872,4873,4874,4875,4876,4877,4878,4879,4880,4881,4882,4883,4884,4885,4886,4887,4888,4889,4890,4891,4892,4893,4894,4895,4896,4897,4898,4899,4900,4901,4902,4903,4904,4905,4906,4907,4908,4909,4910,4911,4912,4913,4914,4915,4916,4917,4918,4919,4920,4921,4922,4923,4924,4925,4926,4927,4928,4929,4930,4931,4932,4933,4934,4935,4936,4937,4938,4939,4940,4941,4942,4943,4944,4945,4946,4947,4948,4949,4950,4951,4952,4953,4954,4955,4956,4957,4958,4959,4960,4961,4962,4963,4964,4965,4966,4967,4968,4969,4970,4971,4972,4973,4974,4975,4976,4977,4978,4979,4980,4981,4982,4983,4984,4985,4986,4987,4988,4989,4990,4991,4992,4993,4994,4995,4996,4997,4998,4999,5000,5001,5002,5003,5004,5005,5006,5007,5008,5009,5010,5011,5012,5013,5014,5015,5016,5017,5018,5019,5020,5021,5022,5023,5024,5025,5026,5027,5028,5029,5030,5031,5032,5033,5034,5035,5036,5037,5038,5039,5040,5041,5042,5043,5044,5045,5046,5047,5048,5049,5050,5051,5052,5053,5054,5055,5056,5057,5058,5059,5060,5061,5062,5063,5064,5065,5066,5067,5068,5069,5070,5071,5072,5073,5074,5075,5076,5077,5078,5079,5080,5081,5082,5083,5084,5085,5086,5087,5088,5089,5090,5091,5092,5093,5094,5095,5096,5097,5098,5099,5100,5101,5102,5103,5104,5105,5106,5107,5108,5109,5110,5111,5112,5113,5114,5115,5116,5117,5118,5119,5120,5121,5122,5123,5124,5125,5126,5127,5128,5129,5130,5131,5132,5133,5134,5135,5136,5137,5138,5139,5140,5141,5142,5143,5144,5145,5146,5147,5148,5149,5150,5151,5152,5153,5154,5155,5156,5157,5158,5159,5160,5161,5162,5163,5164,5165,5166,5167,5168,5169,5170,5171,5172,5173,5174,5175,5176,5177,5178,5179,5180,5181,5182,5183,5184,5185,5186,5187,5188,5189,5190,5191,5192,5193,5194,5195,5196,5197,5198,5199,5200,5201,5202,5203,5204,5205,5206,5207,5208,5209,5210,5211,5212,5213,5214,5215,5216,5217,5218,5219,5220,5221,5222,5223,5224,5225,5226,5227,5228,5229,5230,5231,5232,5233,5234,5235,5236,5237,5238,5239,5240,5241,5242,5243,5244,5245,5246,5247,5248,5249,5250,5251,5252,5253,5254,5255,5256,5257,5258,5259,5260,5261,5262,5263,5264,5265,5266,5267,5268,5269,5270,5271,5272,5273,5274,5275,5276,5277,5278,5279,5280,5281,5282,5283,5284,5285,5286,5287,5288,5289,5290,5291,5292,5293,5294,5295,5296,5297,5298,5299,5300,5301,5302,5303,5304,5305,5306,5307,5308,5309,5310,5311,5312,5313,5314,5315,5316,5317,5318,5319,5320,5321,5322,5323,5324,5325,5326,5327,5328,5329,5330,5331,5332,5333,5334,5335,5336,5337,5338,5339,5340,5341,5342,5343,5344,5345,5346,5347,5348,5349,5350,5351,5352,5353,5354,5355,5356,5357,5358,5359,5360,5361,5362,5363,5364,5365,5366,5367,5368,5369,5370,5371,5372,5373,5374,5375,5376,5377,5378,5379,5380,5381,5382,5383,5384,5385,5386,5387,5388,5389,5390,5391,5392,5393,5394,5395,5396,5397,5398,5399,5400,5401,5402,5403,5404,5405,5406,5407,5408,5409,5410,5411,5412,5413,5414,5415,5416,5417,5418,5419,5420,5421,5422,5423,5424,5425,5426,5427,5428,5429,5430,5431,5432,5433,5434,5435,5436,5437,5438,5439,5440,5441,5442,5443,5444,5445,5446,5447,5448,5449,5450,5451,5452,5453,5454,5455,5456,5457,5458,5459,5460,5461,5462,5463,5464,5465,5466,5467,5468,5469,5470,5471,5472,5473,5474,5475,5476,5477,5478,5479,5480,5481,5482,5483,5484,5485,5486,5487,5488,5489,5490,5491,5492,5493,5494,5495,5496,5497,5498,5499,5500,5501,5502,5503,5504,5505,5506,5507,5508,5509,5510,5511,5512,5513,5514,5515,5516,5517,5518,5519,5520,5521,5522,5523,5524,5525,5526,5527,5528,5529,5530,5531,5532,5533,5534,5535,5536,5537,5538,5539,5540,5541,5542,5543,5544,5545,5546,5547,5548,5549,5550,5551,5552,5553,5554,5555,5556,5557,5558,5559,5560,5561,5562,5563,5564,5565,5566,5567,5568,5569,5570,5571,5572,5573,5574,5575,5576,5577,5578,5579,5580,5581,5582,5583,5584,5585,5586,5587,5588,5589,5590,5591,5592,5593,5594,5595,5596,5597,5598,5599,5600,5601,5602,5603,5604,5605,5606,5607,5608,5609,5610,5611,5612,5613,5614,5615,5616,5617,5618,5619,5620,5621,5622,5623,5624,5625,5626,5627,5628,5629,5630,5631,5632,5633,5634,5635,5636,5637,5638,5639,5640,5641,5642,5643,5644,5645,5646,5647,5648,5649,5650,5651,5652,5653,5654,5655,5656,5657,5658,5659,5660,5661,5662,5663,5664,5665,5666,5667,5668,5669,5670,5671,5672,5673,5674,5675,5676,5677,5678,5679,5680,5681,5682,5683,5684,5685,5686,5687,5688,5689,5690,5691,5692,5693,5694,5695,5696,5697,5698,5699,5700,5701,5702,5703,5704,5705,5706,5707,5708,5709,5710,5711,5712,5713,5714,5715,5716,5717,5718,5719,5720,5721,5722,5723,5724,5725,5726,5727,5728,5729,5730,5731,5732,5733,5734,5735,5736,5737,5738,5739,5740,5741,5742,5743,5744,5745,5746,5747,5748,5749,5750,5751,5752,5753,5754,5755,5756,5757,5758,5759,5760,5761,5762,5763,5764,5765,5766,5767,5768,5769,5770,5771,5772,5773,5774,5775,5776,5777,5778,5779,5780,5781,5782,5783,5784,5785,5786,5787,5788,5789,5790,5791,5792,5793,5794,5795,5796,5797,5798,5799,5800,5801,5802,5803,5804,5805,5806,5807,5808,5809,5810,5811,5812,5813,5814,5815,5816,5817,5818,5819,5820,5821,5822,5823,5824,5825,5826,5827,5828,5829,5830,5831,5832,5833,5834,5835,5836,5837,5838,5839,5840,5841,5842,5843,5844,5845,5846,5847,5848,5849,5850,5851,5852,5853,5854,5855,5856,5857,5858,5859,5860,5861,5862,5863,5864,5865,5866,5867,5868,5869,5870,5871,5872,5873,5874,5875,5876,5877,5878,5879,5880,5881,5882,5883,5884,5885,5886,5887,5888,5889,5890,5891,5892,5893,5894,5895,5896,5897,5898,5899,5900,5901,5902,5903,5904,5905,5906,5907,5908,5909,5910,5911,5912,5913,5914,5915,5916,5917,5918,5919,5920,5921,5922,5923,5924,5925,5926,5927,5928,5929,5930,5931,5932,5933,5934,5935,5936,5937,5938,5939,5940,5941,5942,5943,5944,5945,5946,5947,5948,5949,5950,5951,5952,5953,5954,5955,5956,5957,5958,5959,5960,5961,5962,5963,5964,5965,5966,5967,5968,5969,5970,5971,5972,5973,5974,5975,5976,5977,5978,5979,5980,5981,5982,5983,5984,5985,5986,5987,5988,5989,5990,5991,5992,5993,5994,5995,5996,5997,5998,5999,6000,6001,6002,6003,6004,6005,6006,6007,6008,6009,6010,6011,6012,6013,6014,6015,6016,6017,6018,6019,6020,6021,6022,6023,6024,6025,6026,6027,6028,6029,6030,6031,6032,6033,6034,6035,6036,6037,6038,6039,6040,6041,6042,6043,6044,6045,6046,6047,6048,6049,6050,6051,6052,6053,6054,6055,6056,6057,6058,6059,6060,6061,6062,6063,6064,6065,6066,6067,6068,6069,6070,6071,6072,6073,6074,6075,6076,6077,6078,6079,6080,6081,6082,6083,6084,6085,6086,6087,6088,6089,6090,6091,6092,6093,6094,6095,6096,6097,6098,6099,6100,6101,6102,6103,6104,6105,6106,6107,6108,6109,6110,6111,6112,6113,6114,6115,6116,6117,6118,6119,6120,6121,6122,6123,6124,6125,6126,6127,6128,6129,6130,6131,6132,6133,6134,6135,6136,6137,6138,6139,6140,6141,6142,6143,6144,6145,6146,6147,6148,6149,6150,6151,6152,6153,6154,6155,6156,6157,6158,6159,6160,6161,6162,6163,6164,6165,6166,6167,6168,6169,6170,6171,6172,6173,6174,6175,6176,6177,6178,6179,6180,6181,6182,6183,6184,6185,6186,6187,6188,6189,6190,6191,6192,6193,6194,6195,6196,6197,6198,6199,6200,6201,6202,6203,6204,6205,6206,6207,6208,6209,6210,6211,6212,6213,6214,6215,6216,6217,6218,6219,6220,6221,6222,6223,6224,6225,6226,6227,6228,6229,6230,6231,6232,6233,6234,6235,6236,6237,6238,6239,6240,6241,6242,6243,6244,6245,6246,6247,6248,6249,6250,6251,6252,6253,6254,6255,6256,6257,6258,6259,6260,6261,6262,6263,6264,6265,6266,6267,6268,6269,6270,6271,6272,6273,6274,6275,6276,6277,6278,6279,6280,6281,6282,6283,6284,6285,6286,6287,6288,6289,6290,6291,6292,6293,6294,6295,6296,6297,6298,6299,6300,6301,6302,6303,6304,6305,6306,6307,6308,6309,6310,6311,6312,6313,6314,6315,6316,6317,6318,6319,6320,6321,6322,6323,6324,6325,6326,6327,6328,6329,6330,6331,6332,6333,6334,6335,6336,6337,6338,6339,6340,6341,6342,6343,6344,6345,6346,6347,6348,6349,6350,6351,6352,6353,6354,6355,6356,6357,6358,6359,6360,6361,6362,6363,6364,6365,6366,6367,6368,6369,6370,6371,6372,6373,6374,6375,6376,6377,6378,6379,6380,6381,6382,6383,6384,6385,6386,6387,6388,6389,6390,6391,6392,6393,6394,6395,6396,6397,6398,6399,6400,6401,6402,6403,6404,6405,6406,6407,6408,6409,6410,6411,6412,6413,6414,6415,6416,6417,6418,6419,6420,6421,6422,6423,6424,6425,6426,6427,6428,6429,6430,6431,6432,6433,6434,6435,6436,6437,6438,6439,6440,6441,6442,6443,6444,6445,6446,6447,6448,6449,6450,6451,6452,6453,6454,6455,6456,6457,6458,6459,6460,6461,6462,6463,6464,6465,6466,6467,6468,6469,6470,6471,6472,6473,6474,6475,6476,6477,6478,6479,6480,6481,6482,6483,6484,6485,6486,6487,6488,6489,6490,6491,6492,6493,6494,6495,6496,6497,6498,6499,6500,6501,6502,6503,6504,6505,6506,6507,6508,6509,6510,6511,6512,6513,6514,6515,6516,6517,6518,6519,6520,6521,6522,6523,6524,6525,6526,6527,6528,6529,6530,6531,6532,6533,6534,6535,6536,6537,6538,6539,6540,6541,6542,6543,6544,6545,6546,6547,6548,6549,6550,6551,6552,6553,6554,6555,6556,6557,6558,6559,6560,6561,6562,6563,6564,6565,6566,6567,6568,6569,6570,6571,6572,6573,6574,6575,6576,6577,6578,6579,6580,6581,6582,6583,6584,6585,6586,6587,6588,6589,6590,6591,6592,6593,6594,6595,6596,6597,6598,6599,6600,6601,6602,6603,6604,6605,6606,6607,6608,6609,6610,6611,6612,6613,6614,6615,6616,6617,6618,6619,6620,6621,6622,6623,6624,6625,6626,6627,6628,6629,6630,6631,6632,6633,6634,6635,6636,6637,6638,6639,6640,6641,6642,6643,6644,6645,6646,6647,6648,6649,6650,6651,6652,6653,6654,6655,6656,6657,6658,6659,6660,6661,6662,6663,6664,6665,6666,6667,6668,6669,6670,6671,6672,6673,6674,6675,6676,6677,6678,6679,6680,6681,6682,6683,6684,6685,6686,6687,6688,6689,6690,6691,6692,6693,6694,6695,6696,6697,6698,6699,6700,6701,6702,6703,6704,6705,6706,6707,6708,6709,6710,6711,6712,6713,6714,6715,6716,6717,6718,6719,6720,6721,6722,6723,6724,6725,6726,6727,6728,6729,6730,6731,6732,6733,6734,6735,6736,6737,6738,6739,6740,6741,6742,6743,6744,6745,6746,6747,6748,6749,6750,6751,6752,6753,6754,6755,6756,6757,6758,6759,6760,6761,6762,6763,6764,6765,6766,6767,6768,6769,6770,6771,6772,6773,6774,6775,6776,6777,6778,6779,6780,6781,6782,6783,6784,6785,6786,6787,6788,6789,6790,6791,6792,6793,6794,6795,6796,6797,6798,6799,6800,6801,6802,6803,6804,6805,6806,6807,6808,6809,6810,6811,6812,6813,6814,6815,6816,6817,6818,6819,6820,6821,6822,6823,6824,6825,6826,6827,6828,6829,6830,6831,6832,6833,6834,6835,6836,6837,6838,6839,6840,6841,6842,6843,6844,6845,6846,6847,6848,6849,6850,6851,6852,6853,6854,6855,6856,6857,6858,6859,6860,6861,6862,6863,6864,6865,6866,6867,6868,6869,6870,6871,6872,6873,6874,6875,6876,6877,6878,6879,6880,6881,6882,6883,6884,6885,6886,6887,6888,6889,6890,6891,6892,6893,6894,6895,6896,6897,6898,6899,6900,6901,6902,6903,6904,6905,6906,6907,6908,6909,6910,6911,6912,6913,6914,6915,6916,6917,6918,6919,6920,6921,6922,6923,6924,6925,6926,6927,6928,6929,6930,6931,6932,6933,6934,6935,6936,6937,6938,6939,6940,6941,6942,6943,6944,6945,6946,6947,6948,6949,6950,6951,6952,6953,6954,6955,6956,6957,6958,6959,6960,6961,6962,6963,6964,6965,6966,6967,6968,6969,6970,6971,6972,6973,6974,6975,6976,6977,6978,6979,6980,6981,6982,6983,6984,6985,6986,6987,6988,6989,6990,6991,6992,6993,6994,6995,6996,6997,6998,6999,7000,7001,7002,7003,7004,7005,7006,7007,7008,7009,7010,7011,7012,7013,7014,7015,7016,7017,7018,7019,7020,7021,7022,7023,7024,7025,7026,7027,7028,7029,7030,7031,7032,7033,7034,7035,7036,7037,7038,7039,7040,7041,7042,7043,7044,7045,7046,7047,7048,7049,7050,7051,7052,7053,7054,7055,7056,7057,7058,7059,7060,7061,7062,7063,7064,7065,7066,7067,7068,7069,7070,7071,7072,7073,7074,7075,7076,7077,7078,7079,7080,7081,7082,7083,7084,7085,7086,7087,7088,7089,7090,7091,7092,7093,7094,7095,7096,7097,7098,7099,7100,7101,7102,7103,7104,7105,7106,7107,7108,7109,7110,7111,7112,7113,7114,7115,7116,7117,7118,7119,7120,7121,7122,7123,7124,7125,7126,7127,7128,7129,7130,7131,7132,7133,7134,7135,7136,7137,7138,7139,7140,7141,7142,7143,7144,7145,7146,7147,7148,7149,7150,7151,7152,7153,7154,7155,7156,7157,7158,7159,7160,7161,7162,7163,7164,7165,7166,7167,7168,7169,7170,7171,7172,7173,7174,7175,7176,7177,7178,7179,7180,7181,7182,7183,7184,7185,7186,7187,7188,7189,7190,7191,7192,7193,7194,7195,7196,7197,7198,7199,7200,7201,7202,7203,7204,7205,7206,7207,7208,7209,7210,7211,7212,7213,7214,7215,7216,7217,7218,7219,7220,7221,7222,7223,7224,7225,7226,7227,7228,7229,7230,7231,7232,7233,7234,7235,7236,7237,7238,7239,7240,7241,7242,7243,7244,7245,7246,7247,7248,7249,7250,7251,7252,7253,7254,7255,7256,7257,7258,7259,7260,7261,7262,7263,7264,7265,7266,7267,7268,7269,7270,7271,7272,7273,7274,7275,7276,7277,7278,7279,7280,7281,7282,7283,7284,7285,7286,7287,7288,7289,7290,7291,7292,7293,7294,7295,7296,7297,7298,7299,7300,7301,7302,7303,7304,7305,7306,7307,7308,7309,7310,7311,7312,7313,7314,7315,7316,7317,7318,7319,7320,7321,7322,7323,7324,7325,7326,7327,7328,7329,7330,7331,7332,7333,7334,7335,7336,7337,7338,7339,7340,7341,7342,7343,7344,7345,7346,7347,7348,7349,7350,7351,7352,7353,7354,7355,7356,7357,7358,7359,7360,7361,7362,7363,7364,7365,7366,7367,7368,7369,7370,7371,7372,7373,7374,7375,7376,7377,7378,7379,7380,7381,7382,7383,7384,7385,7386,7387,7388,7389,7390,7391,7392,7393,7394,7395,7396,7397,7398,7399,7400,7401,7402,7403,7404,7405,7406,7407,7408,7409,7410,7411,7412,7413,7414,7415,7416,7417,7418,7419,7420,7421,7422,7423,7424,7425,7426,7427,7428,7429,7430,7431,7432,7433,7434,7435,7436,7437,7438,7439,7440,7441,7442,7443,7444,7445,7446,7447,7448,7449,7450,7451,7452,7453,7454,7455,7456,7457,7458,7459,7460,7461,7462,7463,7464,7465,7466,7467,7468,7469,7470,7471,7472,7473,7474,7475,7476,7477,7478,7479,7480,7481,7482,7483,7484,7485,7486,7487,7488,7489,7490,7491,7492,7493,7494,7495,7496,7497,7498,7499,7500,7501,7502,7503,7504,7505,7506
0,-4536.848020366399,7530.494963485094,525.7645262499093,660.0178796730573,-6300.233848292675,2393.241200966656,541.8095060623577,1223.1472485121299,-1668.5336087380215,4686.503976247938,-3745.548785783214,2191.854192497626,-2097.004908561646,-1753.094732772797,-839.1276748652803,-813.818756098228,674.6107219518005,2084.1810808652463,-2478.66004579904,37.68661475524692,525.7639317798129,-8270.07924539448,8913.638009840402,3680.4326954186968,-8059.599345013328,1488.8464207218358,4241.101346649046,-3477.9223282438393,1474.7460961735496,1587.1761519482318,-6043.028300362746,4943.801164441687,212.72965293671894,-249.0055249581718,-2769.1009895099587,1874.4955620054213,-922.8663227263605,3382.996031703901,-1247.9618802944924,2088.639190120611,1930.7003798419457,-5867.179671814232,6221.521376029515,-1119.702323472679,-4412.219257709314,2654.4923432475543,-6009.792468732821,477.2537265273948,2025.4001946186531,1727.4236922184746,-3307.2278105919936,3132.8164764189737,-1137.3843901024575,-306.43983915118866,183.346077259664,8459.723952591214,-4463.173024455778,-1039.6105556447947,-1928.9819740221872,-476.0719564840975,898.3608254594423,2510.378162096045,-2683.034938803011,-2886.7988438267807,806.2267404657317,-1096.9734454465552,-1514.4878727832065,3323.1500227265433,-4396.683265075912,-4262.529367835612,4457.135219010944,-803.9614544819917,379.42553466848307,431.723878922884,1385.7085058107236,-5616.307903791423,54.54043624524827,3195.8218045678595,923.0554527250057,-7030.127715076658,5417.711105679473,318.3458293276292,-692.8277747651387,-3501.158846639369,3863.3892666254965,-90.02715099485438,1015.7905262388535,246.99839176710069,-5991.765236081737,2808.3540371378645,3511.10051208636,-4908.783669042048,4495.522947759643,-3002.900481863745,414.02332511516,185.95269041452468,5381.489379404141,1018.7919340620859,-4543.865197156444,5723.406607164528,-1230.9573741630804,-4249.203624258461,-791.3913120861197,1835.2719915486225,501.91336156857784,-1968.5714711510489,-1321.720594425466,409.9877687141577,1748.7816574320034,-2251.5812781336062,1541.4296990673665,-1047.0207173587933,-4862.751702920851,6532.291979155602,-3908.1160095113178,2633.9021012191597,-2697.951410054699,692.3723128478648,3420.1512353871944,-1583.2392546794756,-1126.241722535122,202.15972906020272,1995.6337453268434,-3382.9875555151207,2144.836121046467,291.45500803197535,5122.087717382866,-6132.071609840582,3395.679299640582,-2908.7261062332277,-1090.7295738548428,-1367.668734750509,2398.3391071127207,1128.6167330927512,-2679.896211672792,929.2077506558101,-4668.307178576657,1968.6322357745396,374.57467311012294,1605.1110329654673,-4539.182015658929,3943.4876023809416,-266.33580754423673,-24.846706374878377,367.2567167261729,-2154.04091855743,1102.8030851976268,1132.691475839194,-330.1479653852764,5000.06087371593,-5231.19832001883,139.99001429283206,659.3945837526817,4621.445518124836,459.5941416685662,615.9336516610618,-3168.072713788172,-3146.5041231335886,1060.323149269584,866.14154074537,-1364.903675198269,511.9058809458623,-476.16206952061077,-2425.467474187058,-2114.531123423538,2967.345105310318,-1720.2390965624468,4544.923251676083,-2298.7117389520977,-63.12701617437975,-1083.8837485948527,486.4324107087104,1499.3832680425944,-2762.73218038862,-2106.6249870708734,4556.114060340264,-646.8356438955102,-1250.099478889924,-1857.6832274896792,3907.8817399329682,-1688.88812977524,-6508.785851538002,7181.808490259984,-2609.560789156997,2463.9067804881142,-1742.7149596829954,2717.8649157874797,27.8393828338803,-3163.691267017489,3545.8124792039534,-4695.810150222323,-3928.5391023391207,8566.455770278968,-6533.4158147541875,5583.760497151396,-1599.2555342889914,-493.4835010961521,5410.195960940901,1189.4472209174146,-4366.336185790463,388.81132354078903,1270.2440880572235,4502.016454264374,-4940.137833132597,1479.1244744896007,-2417.3381886074417,1334.7058427253194,1638.3997847731225,-1888.1923407022664,-582.9491161281674,7313.0287455561875,-9477.779934564769,-3122.9155791590865,6721.309657284948,-4004.855920891362,2019.4144554571164,-2115.684942620332,1333.3095087582922,2402.299534251437,-4494.0318919854635,-2319.3883340646803,6405.185690404667,-226.88641992446975,-2358.9729475077074,771.069625532201,558.9184866581094,-1788.6783335357316,60.44071679209219,1416.895578155693,-4467.81519981157,4155.923261406061,-367.2444769969666,-1548.1800326664866,481.2094867107582,1076.1914927929702,-21.413694952782315,2229.2241006559734,-432.3244879114693,-1976.8164216534378,5021.606873625503,-1646.7539348231687,1837.486335461525,3626.250045128694,-2222.414617646877,1886.1146327132647,5487.050448044658,-5806.412645816657,760.387429820091,-4377.516159662435,4379.237990951204,-2973.3287407618354,1997.9103509424776,1152.1035928013887,-3409.1804114452266,1483.6571858912898,3401.793797518544,-6245.1767826645855,464.2157387758767,188.0333394066161,-703.5632222084403,4949.5481994721085,170.14875973909287,-4917.568276835348,-645.634340693786,2336.165616572831,474.19946986657277,-4114.625601524146,444.3360080881111,2555.155706947152,-665.241052374595,379.704916370752,-2772.516208189793,5760.626736881728,-2088.0135578545246,2887.5255688238644,-6112.8946590432515,2012.969669106588,-220.47150228701722,1239.553180689144,2234.4271710897606,-3160.713280921167,3032.8539869308206,-193.79483380278555,-118.62871737232643,-1442.5689764353529,4197.09191439686,-7383.8009705441855,2643.586521737122,5178.606278402303,-3652.2302914586444,-4847.599220186001,4919.960674267119,-753.2394616736652,-5653.891912326552,1489.6181862049611,10037.311706042115,-2796.41567292299,-1262.596734953192,1558.0086784461728,-2596.1091928279557,4414.603427154132,-1329.2092526348188,-4734.576843260636,4991.159753854303,-3981.3299060655286,-4502.393457161792,421.39863122355075,587.4265349076283,-1483.3295954477526,764.7673066442833,157.74308925516888,-3451.7908507398215,5884.336241460348,-3172.697602970207,4044.8962463803527,-2214.9231234529707,709.3397930250337,2208.662136570722,2644.5492145893313,3138.39649709126,-4363.770736143343,-2901.7829518932103,-996.9008890494082,5547.389762638023,-2186.8648508703095,-5551.735816660291,907.0551091709477,1734.0364362437037,-1929.6136003334943,4287.298307730061,3689.1480514077907,-5526.700754426036,783.6275511539221,4115.933229592145,-3955.7398838428844,-787.0005164904895,-41.81541156947012,2557.873834757612,2970.8171915138396,-3337.024559672249,2947.949393531324,-3568.0316905572254,5521.180602393682,-5498.169102714642,1340.7324824720072,778.760172661598,-2448.8444343721626,-2576.0917551269567,4349.4497701433165,-6711.384942601521,-29.155781117315417,-2473.9462671924375,7565.732129418129,-3599.681937062675,2227.092739101035,4470.095950014486,-5279.265309728679,2518.8489802248832,-4507.066925326943,1022.1018799320851,-630.7102753984902,-6160.392391338062,5974.319605225904,-1602.483504408929,511.51832102248505,-212.9576684234914,2886.1678058836496,-1745.7522417347354,-4873.123707867156,496.38167943822293,1234.8926777880852,3872.4981200732914,-1203.733741102128,-4092.560045298331,3378.137831348131,-2751.9343146702195,-2125.964201984291,7173.489627050919,-3939.814392375956,-4067.7665234304004,-5483.8087318651915,6486.391837754515,-5335.508046567564,9370.741940537202,-182.65680219779554,-3635.7409224138364,-655.7233560345795,3672.989518213628,-927.9750952356386,-4673.807809653631,177.86114375944567,2396.5399096854135,-5045.391659325368,5547.785164141875,-375.0046703355787,-2031.4387960255397,1089.7578835633776,-1640.950080305079,823.421502245007,-2157.282184353392,-461.9496352494923,575.7051476823295,8153.685623518806,-8846.801327757168,6873.861761990001,-2229.4358394927713,3447.009886684264,-2978.5990836525652,173.01178083063758,2483.263298292264,1075.8089186438442,-665.4292847188358,1005.970124281467,3295.235628712982,-2173.592747932308,-5343.404045337288,4363.526677778591,3186.2463153506815,-4770.9898376472465,-651.3689071032159,2056.3639723227116,-1496.1410931627152,3633.3591101453744,-3882.1802778857864,-1483.7899573610134,-1621.9834333486265,5901.857136878739,2273.3009780927096,-4410.2778730039745,-458.28205277462695,370.3146749883636,5772.322782072128,-3611.973020998813,1016.8506460268211,-1596.911335896807,5232.688196726277,-3797.2124329503076,-660.2785987944021,2507.894901567795,-2690.2290882866027,-4211.773126426153,3610.897943615712,1361.8844820596998,-1839.6687152817008,967.9124744194705,7746.523639817411,-9256.705269311316,4212.649439976198,3580.659420515683,-5371.758286367577,1913.6561996700527,518.4859347343215,-6612.65898778383,1935.8759469260037,956.8308925151026,1349.954784701053,-110.67534535335595,834.9611527135087,-6969.339891623511,3168.1584082955815,1281.1777527925253,-2175.762210991555,405.0013988634818,-3994.377557417658,-3.3775581038652307,4809.801769210337,1377.1948775475512,-1691.9205783350053,-30.6205024671154,-6294.190724804101,-1513.220505637801,3977.8997780996333,157.9092501268801,-2140.5093046890884,-4891.177350367017,1983.5176647935712,-1391.7425602218143,1297.092366878405,1610.297531767164,336.1616973910376,-4428.216567024795,3386.0978695473295,-708.2928739569815,-1620.0104394408595,1331.0516239752026,3550.7367451881382,-352.04094109255965,-2845.921416186071,-1049.2896345412828,2069.249415678109,-967.0372211179829,3652.748826616276,-2695.832563364261,1533.0993888865703,-103.61802742747365,-168.50810532580624,112.53777042396374,6592.03746472576,-4094.747808462191,2318.7803640335114,-1919.2072772314848,-246.17036680685683,-1893.393795295082,4436.35283437847,1564.395630311834,-2461.2022369094666,-2036.0568515699479,-5214.235820382448,-275.8803573072041,3170.8351593841044,4198.929026773433,-346.91521070818294,-4538.514845499465,1594.954918959343,857.7398473985827,3554.2342920248893,-1847.567065481685,377.4951868491189,-2478.6357980082626,-4006.9105254919,4390.441443610014,-707.0885044960736,1042.9149818565515,-4086.4524226841695,2099.1649654634275,5122.414658433725,-7761.5641744291315,4391.103990627633,2114.28041565801,-453.86113494121855,312.9703383177446,-440.7794010530834,-861.753199885554,-1324.980745057964,-783.3094989725973,4519.8464094087485,-213.21630472956596,-1514.4282147064173,-6170.143156736731,2877.542027017266,-5571.984925024653,6750.44354356694,3653.71912990888,3269.9738161729792,-962.9095233491475,-1625.8284691306703,-3511.720015774477,4262.315728972937,-1521.9338720789829,239.13006005515598,-1272.341109723642,2052.899835932128,-2454.160668486033,-1016.8644883998189,807.7331712734551,-4413.196559954295,615.7226604201129,1639.3117047137341,1377.7533971101147,-787.1073363194465,-2538.8358629512204,-7400.174657103561,4440.9043172918055,-780.7390511894265,4436.681178811775,4024.562348992233,-7025.333501951914,2079.464380460033,-3149.1494858425694,366.08976093178774,-946.9890173129575,3004.2499794430582,-4273.084613917498,5566.948404265999,574.7275183088308,-1635.6044263940666,-5382.637388547658,1385.8256369283408,3900.6204622954187,-2200.1353053028542,-104.33879756038135,-1706.141313580739,2408.5079155547287,-2385.0396016160753,2489.4237250853453,-5417.883120403911,2744.639191362275,-2053.4841217107514,1925.033247514551,1371.8535226614808,-269.838922986684,1536.970216627443,1546.3702176499623,-3021.4275497351405,-1630.063906602712,-447.8821151651879,4821.945181182854,-3880.2117645785415,-2185.1586395865734,-1227.5843324063203,6152.190139624477,-6570.421793357716,4716.622993274444,1287.1131593763803,-1273.5154310524172,706.5806665436452,2322.127850814102,-2045.6685762599204,2757.4537442808955,-846.6360125359852,-6107.116828039163,4674.559360282379,-1426.694553160868,-103.7594225466616,1496.2416392486252,-1668.1223873222398,-2706.469026398221,5447.904063553758,-2870.104396787048,280.8876785239455,-434.2247841144157,66.97390176452012,-2909.458611899081,-55.3600934837418,1058.2876488035624,-2139.3839015806243,1090.4199880753451,1119.5305225923503,-3233.588122971665,-2662.2233439752417,7279.166119589642,496.504158556083,980.0977075142794,-2303.215206187992,2831.9705276937048,-1675.1268900056623,3148.2822509433086,-4152.868061262577,852.4133459280912,2920.336968979886,-2438.998856438756,887.3938223410826,-3251.0115094421826,2706.941400451448,-3733.4076296116405,4670.922831221005,-3079.1153964772557,1725.8632469585405,1511.9679501349217,-1641.2657030399364,-662.5006106043942,706.6756832389103,-1710.6883149499745,-3112.316165019569,3355.4056705281546,-3265.6501064353347,919.030462545825,-1105.0454101890407,2319.445909120597,-6190.683473409329,2472.4979561781156,-3115.1893353217947,1459.2728321708566,482.52088409271704,-3953.586412696226,3264.146008564579,4492.931275155333,-6736.727892202267,2568.178845602894,3260.940373025304,1299.8850353326163,2681.021275213207,-4198.953895880053,4349.6580524677565,-4534.166895867265,-36.263918542435604,981.3452996488019,2941.9395321493566,27.080986761700405,-1289.3191490599281,1295.6013866941962,-2337.206572172924,-3571.8601987920533,6093.252830167811,3966.2404441468225,-5288.593843038431,2652.2219745387624,3013.2175572184533,-5934.805792220752,1306.6708872746442,4637.331475148075,-2569.3741119838865,-1664.5041526612695,2577.3937633912196,78.24433656149236,-5021.538931174386,1548.4058632751737,9448.992243510513,-6553.725160710066,-2511.3793186118883,5909.765848966032,-2827.058433618865,-1073.1041359763062,617.5535303717764,155.59520662910742,3347.809753738063,-5394.995180782948,6712.600513707959,-1364.7542877651815,-1599.76059614217,-2610.6851108642713,3458.587873573265,-545.0943636000931,-2139.8637305824614,1318.7295474467373,754.2276216030399,-3711.3424799803597,4322.520618670149,-6943.822895071794,1695.778811779506,4734.95754097214,-3306.2459884669747,-4406.7465034685365,4104.811965571839,601.9750994580248,578.7389256082722,105.83309712049362,1110.537333707389,311.72236935172265,-3455.859489412871,2901.794570694515,-5659.490266552965,2792.0129373582736,883.6156497740791,-2547.153691899632,-2467.4837674782502,1039.6575603142337,5555.257453800043,1251.535254334573,-8048.627208306909,2865.7590673043683,3612.8484501084,-1453.9832039859873,314.6483582587583,6588.512446876682,-6696.952397168398,-1351.5882313522782,1057.8264450549393,389.77233515067155,86.20839638472347,-2446.3735664568703,2181.596415873597,6623.0220447792635,-6683.356594348194,5997.992425876388,-8635.405721428815,4006.688051057867,1404.1959587364681,-252.88539360972018,-4302.725738568766,1095.393432254379,4225.75877877487,-2352.9180861013765,-432.7837838333364,1505.451175991451,1376.6224968192764,-1319.4558115153288,983.3229804820701,-2788.0212558104167,891.6228460331914,3235.041608454834,-4125.610229545528,-925.2608256165378,-2658.91959806758,-2913.7821910877265,2941.1851239517564,1153.6037385750296,-4278.423970090102,-985.4612702616326,5583.71897499069,-6639.654869528505,-1778.2619228650915,5720.733953898383,1661.3044475622241,-2323.534449851879,7481.987105379897,-2084.6014425755675,-1668.4201185402076,1374.3830945849497,-161.92073660163354,393.9975813961593,1362.8000143284764,-1532.882600996396,-230.23897785334054,-4599.798173081827,6760.85882944523,4465.943674124187,-2596.0369882174996,-689.9308894850345,1797.3992500268669,-2138.6007049847562,-3966.594537101503,2122.4078649509565,3322.824698288281,147.97397252340414,-2176.0606583635426,-336.1809285336354,4665.1103131527,-4903.101535265904,-1756.9693765244333,-394.31897565845225,2611.6424977833144,-3452.2575059971587,-3359.0044869419444,-309.8004748873177,-368.98894849135235,6664.580739881401,828.7046668651693,-1572.28377819897,2009.4349385214512,-4225.446237582858,-1721.7849984440656,-4811.644708975578,3034.910027657797,1148.8004586831316,-178.4238887758442,-827.4447161069346,-2736.2536736238017,-2336.8564893623043,4597.774167327148,438.36657687407757,-642.2320093140265,6776.413773512247,-524.1757994074558,-948.219304457678,2087.7739411835005,2093.6267958448166,1723.292945363802,-6397.904927072869,4935.165532498908,-481.2431018885663,-2958.007954844009,1745.2486204744505,-2238.50124381129,-1607.2773003352631,4369.2890107601015,-1053.481143003296,5645.044311527901,-4219.250926215677,-292.49140077369447,1244.2115443103264,332.4566900485434,-2374.0900986000142,-2688.8186241706217,6542.333241671601,-1501.0031907679268,-1665.9161668817355,-1459.193219087278,2617.015705876053,-2797.874876525411,3244.1900399577403,1773.2117302678969,688.8538855345912,5516.036621527223,-4058.54154839751,3048.7702217742394,1670.1299309409721,-4734.414444016683,5028.39106349149,-1963.4140916364443,-307.0820708892699,3208.496295365808,-3207.028369959546,3266.3828271932116,-712.1567527088364,-3384.0678534401964,-4917.851290887584,-623.3125590872235,4407.616953864075,-2000.2389316948922,555.0324611850061,-1100.3789743678008,3064.1378128417628,-2151.8093258729064,2069.8271437760286,-1630.7499310215505,-2217.2437918653154,323.50574373068235,-1893.1469427455606,3505.4778505122686,5122.443827639744,-6360.928093121427,1664.5364840750149,2943.10395306219,-4511.371320002002,369.2703370843387,-1902.5174449966785,-788.860525231868,550.3220345774538,-845.418736263989,4553.9869877200945,-1456.8949804807305,-67.6264186895849,4228.354586211367,-6063.22276630968,1144.4200348316735,2276.3191532530227,-1671.5530912874847,-2579.2084640778394,429.103063872809,-1344.2779704256975,2473.17438364095,-3948.176396222889,2990.047167737417,-2149.8227200641836,1143.2431165588741,1578.910626859351,1786.8753799379817,-2684.0226086746784,1194.51263619073,-3440.701244847125,973.9386613399138,2983.1344619005627,318.1269561661404,-3180.835655898336,3212.692305714488,-4991.997085616073,3545.3530226733587,117.82908379138273,3015.499649254698,6642.246951707517,-5370.380335473816,5059.73418634754,748.6197218618456,-8146.46605625145,3155.550912044551,4710.9193483247755,-4130.509470743661,-1067.3273385191114,4375.307867977901,-2234.5980398120564,-644.7168175151745,-4209.930649962611,2983.5263659293482,-2595.4141668967804,2133.472528968159,-1842.1799815911152,872.7560998122592,-6887.729659900856,3786.1865712028707,-4319.629945692059,6057.404612321763,-2605.100796398758,-939.2206154287732,-2616.249693643193,1374.0545740420423,807.1166220486458,-3463.7438426164376,-4836.430241651543,5268.781180538021,549.3032142452397,653.5568778295332,703.2935386399912,3307.959976389561,-3846.6033943721773,-1514.7934617095787,1621.8957203898108,1078.6626745496899,1515.1912508254254,-3506.7228057080547,921.0407533327727,-1230.164718398291,9269.536813423285,-735.2335788881115,-5024.014387776795,-8.917904494111498,251.37980495091068,2615.32646671287,858.5863250877575,-384.7601128398603,-4111.456941990622,557.0307819317411,4376.253850298438,-1900.6224029403354,576.5954103847945,1047.771746030888,-1087.2336011156121,-4794.4448253090195,2058.3716081446237,-1052.126811993734,-2862.3243153477197,2973.4715679501514,613.4970246606706,-900.1808995974882,-2349.497691843415,1628.8730663283307,621.9061276736224,-2278.468983911291,6915.578736313466,-5257.006395855519,606.8150126493717,-636.0638471897046,551.7283982946502,3073.9398924973207,-8437.768225858954,5933.431188186676,-3298.8841269104532,-1504.566076960179,3170.6656760041624,-1089.3353414449034,-1232.592382010277,-2471.3745606770694,5508.639847573874,-4446.562173449322,186.2506592726828,2946.2955698420096,-359.12632589460264,4618.966851018364,-97.3519165296977,-33.47424392067296,3562.9458839640242,-6737.375955671875,2267.5632168022144,354.44118084240375,-3200.2076963603113,2910.4568436554914,274.0941997480102,748.1812485887503,-4360.279526656042,-209.7567074041425,8041.4769799044825,-3016.355155664794,-2006.0765851110702,3901.8328729158716,-3804.6987280239864,4821.045580565305,-2298.084475066239,3160.155074881994,-1921.630360400011,-2727.3234955118783,4439.6823522306395,-239.2800660078953,-892.7880708044299,95.94685735366474,1843.7785611097834,-968.1275211795324,4364.775529299502,-6275.930493813428,-1866.8097674118264,-1717.9342125878109,5560.011239719065,-10615.619347720582,4027.0062626879344,2271.638549039331,5300.449586129507,-7792.170169464811,5149.238301713424,-4485.090931984875,4619.212191681711,1055.8126571131222,222.18081422312608,-2735.9120039751056,4092.097195371142,-33.40118669011761,-4488.947153561231,961.7141349285835,-934.7835402095275,1685.840234824018,-655.1757847097883,-495.5160520457993,863.2514272159768,5.514465399607507,427.6146516254215,-4568.433028151433,2684.4274399263045,2643.2033229213353,-2735.483423614186,1603.994053666915,1624.8073736352317,-365.35536685109713,-11389.62696413655,11089.423642734844,-3737.144310706156,-1893.9182859572675,-351.23715927333404,592.2717978539306,-4458.628532374493,2633.5543287597075,2149.267177270525,-2011.0658991920072,-3759.973903789909,3914.3367775951115,-2191.9407895734334,1482.5230130773114,-4621.557869106724,1168.431644236824,-913.4594095355479,198.58809952981915,2944.6166265002644,2076.4699417195866,-2810.9182010108516,602.4331922194655,421.3711402213729,-497.2642328217716,-2117.0300850785993,-2471.295082851345,3379.8971329284873,4190.2063170002675,-1653.1210055331176,897.8993818160069,-194.7861172292573,-754.0531832945907,1278.310722486096,4754.468975568753,51.4898811284823,-510.4730307339854,589.6639144350717,-3065.1802984722117,-2554.0052169557994,-1305.5732104589065,1395.3691864388197,-191.74149505690266,-2156.1854768411154,4931.988683779143,-5826.732243046721,-880.9321457024287,6214.894501827607,-2432.288693787794,-5069.263892278369,2060.6959234000337,1028.0573544160654,-1847.8669529841998,-297.26623353353585,-84.7005366387857,1426.5834572841698,-2984.9508655457234,7699.930130936216,-1800.4773461659067,-3516.218151939376,-1364.5393350711724,3283.943860248233,2312.7720396524805,4901.770624787245,-5953.9503864705275,-1159.1080711063491,4676.802561157444,-575.6453954333066,3387.26222681023,-69.26905762446295,3378.5967960134644,-243.53307231838895,211.12154088761108,-6071.2055860866,-318.2577343070908,719.3052125156959,3302.2913573130836,-1400.5978959219972,-2807.4076377510496,-6199.664975810451,12020.259079827187,-4093.377876848065,1482.6946972089684,-2975.7395717808045,968.6190970952712,-1434.285165133787,906.0880603035693,-608.812849274364,4385.709363564363,2842.543087747022,-7221.052871949888,5614.9115977499205,-2638.5430276902543,722.9984051808648,-3686.0027206545255,4557.817640948827,1562.5916295073412,-1658.1851091685594,2436.7553321376968,-5635.478119383415,2284.2346860920397,2788.8839816130094,445.58501686914695,-1976.2720992985205,-3589.7811668647428,3411.552509979177,2700.1710010146835,3031.3076664261794,-7852.258846474079,2052.414813191121,1507.4854288240872,4338.067522648245,-2592.1419016894793,2206.727096483018,1393.9734064672195,-9381.114424985928,4974.077194534522,-1383.189231191513,1678.4690868393438,3142.1258207432775,-2204.1012655846193,2615.8801970407167,-922.0517903090054,-2692.823850488298,482.8639664733912,-1181.5265931294157,1063.1183338354429,313.62873048598675,-2426.113488520626,1257.5721364299313,-318.2024781573065,3199.2048237052904,1450.3485612110837,3583.3237907122607,2316.217710351627,511.0306101246651,-5549.293972196332,-185.15571547089363,-898.312492950061,1523.434954491487,-415.3314165493097,-5469.654050589305,-999.5726836174533,1493.0228771495688,1254.3035927299018,501.9999135494738,1884.3916662731324,-2126.196086401522,7323.952635930636,-3731.030649110396,3261.231768150849,-2420.144922744539,-4676.9723526516,796.0017955420708,1674.6052435075783,2318.3181995471573,-4390.933819515844,77.66449226457034,-654.955491546435,3545.181454123325,-4418.599042640039,2580.8146107925954,-272.04593912528463,583.6261129067301,1681.6286279237818,2986.0414298343308,-3462.0479145387367,1648.9883952057905,-4213.41520058723,-1512.5994917926778,5302.613852328745,-1078.537979466906,-512.3142070872241,2202.209796836074,-2233.5525345171936,-1229.0317245538797,2994.996016893368,-2041.20479311526,1923.3515412068791,-1047.5857001690058,-1942.5824604115842,846.3631535226955,-5071.263731675558,1519.058813911125,4321.4977848911185,-388.8555382026342,-2368.041452748796,-359.1478325921282,2455.097769403321,2574.710193494531,-3053.3736093403218,-3757.4314296503185,2513.040230890603,-2834.5815479242815,3109.5505246776056,3527.8813548356684,-1686.3712094531795,-350.52840404197906,3872.3418098241523,986.801176242701,-4209.620454741431,440.52441853762053,344.8624383469216,5485.407178047054,-2298.357790865873,-657.6172062006532,1057.178281571736,-3772.5456502823085,4512.452559540536,-3903.7512250614523,-1586.327434241855,-1776.215310551282,2105.042780807296,5114.656356014927,-8481.575945547364,6618.5903559479575,845.3695983102818,-956.4248574927241,-2303.3228791831143,-2109.1493727994402,3652.3065840679296,-2362.911410627679,3086.445936181056,164.4346806712009,-2596.8360277420015,5142.253422588402,-131.36413432992208,-488.03862980399776,-6422.784363575279,3227.6897277792687,1.3529192152332326,3055.111952098088,-967.0630042024216,2132.800162933962,-1930.3888563003597,3601.715950823426,-4707.808336867333,3583.8531196597405,1495.5953834140446,-6748.085130369302,7312.039791605547,3402.9186181556634,-7055.165831694781,1048.744240564916,-4127.485265533523,5578.527785633466,-763.9154544117608,-4941.741154849797,-373.3958951309371,1417.348196149791,2224.974404094925,982.846595986829,2406.1333405217224,-7185.688112622333,-268.63953860748995,2083.7287832960474,1083.5416647355307,698.7565512859495,-3501.46932809195,-2950.7100330372573,1088.3816475338672,4747.980840444781,-552.4765645072723,-1663.2900088676347,-745.7272745074425,5934.55104560961,-4619.913665776151,1343.2429088743777,1336.8984785609637,224.29176883929955,-2775.579791765315,-2876.7480692413806,1179.0012046251672,-297.4282192068467,724.5514075582491,-1249.333201321656,989.8607574566915,362.4656796700843,1516.4434683782474,-90.75075123267615,957.7588368642027,1350.0855730144342,-1837.6096896215913,1011.273974803691,-2642.08498904794,778.7520465725435,2680.378880323455,2073.9937175820132,293.11560245836847,342.48788918537326,-1208.3530970255392,-793.8773719356344,-3084.0131679779406,5837.755678166028,-6310.353628234697,5569.487508588891,-4484.966271190334,-1495.1185814620364,6484.619995103395,-5406.557490668346,3000.105301828026,-3641.1973162951886,5309.610164530524,-826.674442739592,2046.6879388890086,4591.224960721485,-5113.882403328297,-2772.545074721759,1025.0854388119117,88.91313514749403,-2919.61721166796,4821.974844608802,-441.18064875689,-7012.927817789727,8254.432178655254,-7136.112598197186,3410.6581168539187,-482.3224739371217,-4878.8050780628055,1874.7700820396851,2327.338972062097,-1439.6392671999427,-2508.532905309243,2976.094149755609,-1650.2265823416103,-2979.630882916801,3521.8308087998307,-238.94912153461559,-654.2652177582518,249.81132098523383,-446.8339773712703,6119.942906716277,-2648.6774510302944,-3377.9435931904195,-2221.021891129316,7066.656724185842,-3905.4179022576363,2338.0040528219847,266.7491128591752,1062.1144082305948,1504.5254342874791,-714.3374203670538,-5794.539682578002,2404.6089818107966,-3186.6870545134216,146.02537537603112,43.860957274656464,101.50449263533507,1488.9327029745168,672.7956115396751,-2394.0619798221996,1875.6549401532923,-230.99085848816284,-73.3261340786793,-1276.0556264026093,-400.48539200276196,1826.1115560876954,-1988.0827301318266,-634.1304110985069,7012.416199174075,-3434.605616975595,-2921.971791168702,-915.8085898547683,5051.742881500236,-3179.2985242227774,6947.363774795069,-904.237034344644,-2500.0773304949475,-2367.019061873522,2955.8864967321483,-3157.2400976551235,533.5151709297367,2077.8005375158896,-2541.4886245167168,-1131.3060092713524,1639.4885273345174,-1578.7218380690733,1295.4486230680286,-838.6393239498207,-1385.7647325250105,-494.4581749575659,450.2729583705427,1832.929226156094,-3886.6142961332243,2287.4768902310043,6512.485385778369,-4580.238364154329,3847.8652705376135,-6316.093586983956,5835.03423102649,-1586.851075356512,683.381120831882,-3773.8140687611794,3594.724270231506,-262.64761600251074,3816.1596369134054,-6584.277992572937,3853.512751553002,1160.3586449324998,2674.5083059754606,885.3792999368368,-4190.414084369831,828.957842815975,294.79782208863816,3040.356811407808,-1821.0502021496297,1278.764048119292,2093.0869171044073,-2411.665547434768,-840.2729499700436,2887.125984749308,1949.6748034489037,1158.6981147735191,319.7554826179013,2119.236317341619,-2185.9090538837745,-1024.036707480561,-47.186964411771115,-336.6685570205245,-2176.5321076941195,-2625.7180229583464,-478.76359384021214,-1399.348497940752,4252.934491141759,1269.6874220767957,3409.748534393015,-10701.601584294609,13246.942879592005,-3923.906564496189,-3258.9531456289897,3811.8563288452674,3845.5360890584393,-4637.999477853821,3405.788926779845,-5239.704588689416,2790.146832006243,1128.6168106813552,-2120.943517952968,1562.9518818278184,-1266.3088244121218,2485.2796535616235,-1095.75897663168,-3932.4744421505748,3628.3650962500924,2808.574232139893,-1696.353359522368,-2925.856300748979,742.5634911480873,-1388.0278477829968,223.6662568462539,923.1840100295791,-3767.2971306202166,918.1211486647184,2061.80906276563,906.046181317544,1448.7562848579691,-4266.34706570624,6867.438552919555,-2988.541812680735,-734.4730704629669,6102.051967754258,-6269.501797004922,-135.05975283619912,3050.056402622335,-5209.214074943509,5070.049396037124,-5037.597483946923,941.3938311500922,1692.746586240058,1037.7832997230337,-1876.0657508478246,6927.147661925937,-886.9627105199493,-2925.5837733428143,1776.1105777436358,-855.298050902354,-385.53361655763854,813.1147376777153,-1558.6828348795198,2317.779843665848,-3236.6293916665877,567.3495950929721,-2482.3288214822064,4100.216907914916,-6925.497841624212,-193.0215984264304,1596.435902353585,-301.42341399172926,899.7254239476215,4434.604256673601,-3558.189887943595,-1107.2253397745073,4765.314264608614,-568.1289766054323,-3664.885944710014,-3094.7163585108374,5729.602235360018,-2098.887348509355,397.669602568492,-164.16602616671258,-3047.698654552837,3683.022659554344,4254.803608008444,-4208.281683375663,-4584.797796012987,5824.102941796553,-4704.3371234774295,2195.5660001480283,-4156.029414901394,5902.986563965517,69.18747865635225,-2564.8695489274396,4106.607731468592,1476.0920719599262,-1030.605648662037,-3398.0325408138083,-2961.741005237344,6283.022359648722,-1103.1466377022332,-5494.982466143206,6759.4426034617645,-104.20025970815568,5103.609726139987,-7249.632987402363,6874.321710917125,-2715.8536752173036,1176.9680805091323,-298.28968191481823,-1686.7402817592647,858.102211799922,-2676.632450865531,3123.6129345436975,81.42871930579415,3947.569960202965,1264.0796873174709,-4021.2585530069123,3944.7064768116675,3166.3675275093196,-5769.018597217562,-2358.551053244507,-2677.7120009212395,5476.024283408525,4239.544128170217,-4489.305641074024,-266.79925729747134,1815.9121725043324,641.9142865170473,-319.66092621944495,179.4503429706156,-1411.6515593909364,664.1864467826431,74.75417684504951,-827.9823031205431,3822.7374778988205,-2334.2090548590986,247.00223838286024,-3461.6516028954984,-1303.8617975743555,2672.854749807982,2194.8724251284693,-1237.0174272833362,673.1490875778105,-2800.2153890246573,-756.0473196532222,1339.1189498956355,-1093.5618152682175,-2482.391112875073,35.00187601495709,3141.2105357003616,412.3829132107725,-3157.371020189616,-3706.2254619803566,3780.684788209507,-3773.150835755755,3462.746026436885,-3641.1813465477467,-1505.0445237489162,3759.060792015867,1168.9480261793083,-4623.985671526398,488.2784662732237,3137.2546631607165,-3050.4454018419033,8211.679562182882,-3576.887614991281,-5498.037442287955,6111.421060951696,543.0705081184444,-40.391299736022084,2484.043826680015,-5574.403887898374,6085.406171190524,-4168.86393616087,260.1266435774462,-966.5763080557399,4989.528348998449,2705.574725687038,-745.9360306764103,-4069.9014042935487,2631.0791841550144,6977.183603915532,-9915.317298142088,3279.603734768519,-3851.0255504490524,4555.132672505228,2129.324920033253,-3605.0524926049657,-2366.7908399794455,4285.436343201753,3151.665390321948,5069.008774521079,-3774.617029797415,-4716.10263546658,6981.500135285878,-2560.6794800224657,-62.21073931638286,1627.8051402853057,-4188.738942909655,1462.2519206269208,-472.3506037981616,2415.0206293869146,396.2169376348759,-1248.941424801846,-2124.447953495887,2109.408603944936,1145.4253102332377,5181.0831955456715,-5141.824373287041,-3236.523586323029,2824.037126481232,-652.6056894996577,245.40679328672798,-1874.8792422395502,-3295.625878884146,2904.3329083122003,-2739.1214761526285,1372.2612663755979,-566.4048731018362,-2062.0111182126916,2690.8377663414863,-3147.690635330397,5960.194487360581,-660.5987582832862,-370.8895375497097,-81.9910793450741,5923.610663477848,-1826.833121282905,1851.3756072092965,1595.4227281406484,-2816.5109029223463,3835.5999964456055,-3045.9806292237654,877.3848880654957,-745.5818901768205,1636.4833336550928,-3456.5732999652055,-825.7475012856793,696.6523394097344,3650.0616648378987,-1749.8607083946229,-4120.2445420595795,4467.798971529023,2111.5962120276604,1117.4480463986702,-1346.8163616060158,-2423.461023706513,1988.5157537186442,3103.6298711557424,-8206.53142766836,5160.740466258608,-2829.807274101718,-760.1845288348252,2138.7435852169237,-5200.157491293839,4622.405164743002,-19.55950476397542,-1778.4443941911993,-3363.970498204383,6009.42239173633,-3579.5411086262607,1955.1605847564674,-1746.3333473302828,1151.5166340557594,-1900.1947344340056,1460.8534958374962,-1126.6267874112038,-246.62465351664366,2890.818417566895,1346.572418293106,1494.9304460402432,-2596.1743837147333,4577.357654922805,-2716.4095552783615,5229.116345325149,-2211.7454448291696,-691.2315789551536,1059.2407494460006,-1768.6113149549142,-620.2149285467942,-685.132475044241,-3702.0700474240984,2757.2212152071443,3912.447950798465,4553.8819141876365,-4043.577051034746,3053.541579045697,-3755.1080922206315,-3057.609992045312,4412.306812927829,-1268.2965173512619,164.28808679931558,2237.2709285160217,-1953.9648631019948,18.52888200174968,-201.8766179027216,3774.3109096581775,-4389.061879455789,1221.9154014874898,4163.204328922163,-218.1866752805315,-2872.9890630531236,711.2978280116617,2567.7443168290633,-3156.538413913346,-1182.8874137029652,1451.8333145781935,2470.9188979634628,-2197.066937426589,3560.5556603394066,-1110.1840384505706,388.4968377951591,-1772.2946424134434,3897.2993921797292,-2201.4725435459673,41.77990548004822,2123.945001709079,-1450.3052284063642,-2637.3885397623694,3125.194667069551,-987.72298328563,-624.0840658871628,1682.2752311953395,2367.8779364062125,1000.4355352632457,1038.1131967063793,-1670.3507712313267,4484.951448394166,933.0527748004183,-2678.5900136218606,3233.812537918021,-4485.187039921034,2388.613901380302,-2421.7316532313625,-169.77850543860362,2879.0537025439453,-6490.367765201344,-1378.2780703023204,3657.3420809244203,-6349.415085060606,6976.2417536623125,-8973.353663618378,3289.5623990979902,3269.7468479767513,2452.4450264348893,-4304.999216116814,1930.089385408007,5109.9038824412155,-6183.9654899038005,2789.6333639233058,-2993.965645003719,-1138.1370761063213,921.352238883502,-2557.434467851401,-425.35082394828294,4056.7568552794924,1002.4855823287911,-1113.5520439493107,-4465.397357465006,8173.418087360216,-6252.17964501106,-1248.8990008770293,1255.8861767303474,1624.4723717825793,-4648.460626142614,1611.5888911745649,2220.810574386342,-4913.7767683310885,795.0113760784571,-1322.397588445123,2007.3062718299202,-2093.7805731082644,3122.3046350998206,-102.81754497907332,1902.1105437323226,-5027.288083321493,3659.084868950621,-1723.3783989842732,-9.209221614371272,-1732.096631923262,-1431.9346946730254,4176.422550640318,120.34170585681036,6691.504889191863,-1941.7059294222795,-6338.87469048672,4799.760061132026,1885.6772930763902,-3126.6424357454644,-1363.5359734323927,2406.36113144017,-913.4615444033739,1890.6123189077023,3463.64266298699,-1007.3771865718628,-1191.8028782649483,-552.8935550781366,1158.746183991537,-2176.137662306763,7603.281782670054,-1824.4203453740345,45.90198542125458,1742.2501968266254,-1863.1726803108768,1172.630339067625,-4105.397591294374,-4743.123240286952,5967.105580792711,-5600.112228304248,-1004.8439199736686,2171.0064960432933,-1009.7341384064052,628.068121866082,2582.7916501976124,-4768.278854406573,2596.305680284116,2421.7488924443055,-879.6057443698052,-2216.987565152149,5375.751196959481,659.9585678168145,-4583.026025280001,-2046.4991794944558,7007.514241925399,-4998.242921097172,-2171.8785090435927,-3226.795972779378,2049.862220338353,2476.9639658810916,4038.4803913070255,-3032.506590777209,1791.5613640267236,5777.547706635565,-2026.1388744351093,-8044.185545782355,2410.6251468753444,945.1985971652626,300.4942042882305,-1988.287323100952,1280.1338826524704,3102.1131228956488,-4253.265129895042,1310.771280294825,3634.464703172432,-2405.6132038949745,-1703.184137219059,-2455.7994568418044,773.4760426226504,121.35716260975562,4158.706381876683,-2154.74990313423,-5326.327409499161,4655.112292659598,1350.3942523475666,-1966.937216932873,-2706.40138286079,3983.0330424115023,-1730.1110540238508,-1081.9760088526423,-417.9703141595857,347.7437097867946,-4380.177927313771,3240.323938141556,1359.6008973720488,-937.485246032048,-5082.180544231368,-891.5427239826377,1029.6844590966025,-1328.897632135072,3356.214929178415,-1621.8240576481983,3385.794836771298,-1455.0880842503504,-1686.6713080111888,2495.3881105702226,520.1328413417933,-4776.6086537982055,6967.512387039608,-4875.149689456855,-1666.7371007618158,4002.7691940602977,451.5922469703398,4192.734524903103,-3329.3486658534284,-160.86689868676825,-183.7805082803586,3248.5155397888952,-1006.9507504851464,-3449.002654018885,1470.3087871260784,-1626.8351094027626,753.954735586381,1531.8411751409492,2424.9896725701224,-5073.93566554667,1435.2560690969199,289.6088032902938,6072.9038423149195,-3222.3954887917207,-4947.223854958663,9522.114373259466,-1329.2140511991277,-4655.856947665034,-1322.6685529727752,7627.122387143684,-4618.325133716761,1171.5207691687544,1457.6856027838076,4681.222245172871,-6237.704001416423,-372.5374180846145,-2106.6744798137447,2573.14517297261,-2780.99480850309,-2792.5907795051858,4428.727172384165,-1630.117462495375,-1686.7292656072689,825.9826434762439,1021.0681793592047,-6061.110180550039,454.12844573050046,5411.948417795621,-6266.610221878251,3689.95762888545,-1086.9108102908372,-268.7099538632149,2256.907454832047,-493.5890029852967,2075.815062636022,-2098.76951047756,-1908.5033345827012,-2228.7411239258927,4273.144240669373,-6098.870744975717,-420.69753213995136,2796.39076018563,-1607.2119832006554,1528.305049074978,453.60251753527393,-2137.7881440669385,-1026.0804660431606,-1099.3196595606082,-211.3047477145531,-1527.6517072951558,2082.175064180593,121.75692726820937,312.58806661111856,-2555.9537455762656,1860.1175515583582,5656.498542696282,-5290.6642124429845,-412.3148865461389,8920.092457082703,-12386.768779006374,6184.882599763964,-2194.3012900329877,455.4944508965225,-4664.323291341994,4765.113622227414,-1269.404873833866,1614.1023992525213,-5909.446083190653,3989.7718030835176,-1644.471742356976,1026.8956583671115,-756.6651998893041,-1486.406045500827,553.7061552484379,-1534.2618000514203,-279.3197117692626,-1650.408142361716,-878.7573603822098,-1155.326592734298,1442.8183620636412,-2623.622285411917,1295.6753759035294,2125.7117925717703,-2008.710120035174,8578.752604677786,-5915.8669588009,-1203.694877207429,4021.6680133246577,-508.29862102405144,-843.8360383624447,-3187.520676935769,2119.82000758555,-1333.5823357020663,3384.444060563492,-2998.7614765414473,4931.08876920191,-4490.482350579873,8721.5155347237,-2104.7113999809094,-4006.681493618102,955.2215719189484,-891.685563055215,4241.558182039159,945.824084268731,-4182.9782155685325,2573.0289057987393,-2365.9138582806568,337.9776148787266,3599.9899574092788,321.0181710546964,-192.6147980392993,-1404.6038391752631,1433.4256370093342,4233.635774620735,-7854.618021209271,-1459.0512657197346,2927.390139836084,77.74427004585698,887.5991516809332,-2848.675471756593,-273.45543340871535,-2557.880426971902,891.5757384902114,1270.967464575118,-5739.944237647981,-334.3635414519407,1968.2637074053089,-3714.7804923964304,1224.2322620444686,-1992.5539489019727,-4007.0375057348942,6910.157933077674,-5323.644269658216,-802.3470604662947,-577.5460264607935,2013.9964181946054,-5715.918822201697,-3388.740499474452,3665.74879203838,4400.0743650383465,-591.2791325422028,-375.5655601232204,633.568902044948,-1105.9352718729697,-1159.8710262700986,-609.0546135211627,5659.464592740804,-935.6218128167925,-2293.62269506333,-4779.805711691337,2197.2565838869505,4758.6555022604425,-5837.1061024005885,518.1555560970746,6707.705998734697,1697.8295421690825,-2363.9808447895366,-1218.8479449046447,-338.130617165662,972.121474851891,-265.06797389713125,23.30538452986595,5067.585863988451,-5617.870923284949,1108.791938968928,3116.7032799838007,-3304.9692815262615,1098.816282608491,2924.7018665692276,-3127.053714143093,-1553.8488478846093,-918.1674642759267,2125.1385411372407,1059.59721779816,-1775.406520107107,-3173.231222161071,3832.0036959180543,-3582.3754349932365,3515.8036747192587,-3024.29008431451,4094.6147496835856,4004.295585197342,-2908.5127557250125,19.624681673539452,6706.241580496286,-3130.334011518691,5425.803110046541,-2165.6007185083417,1382.9222943841005,-3350.070046243248,-930.7922660936482,2896.267265879229,-1148.811452690244,-34.95981973868977,-2440.7229734438274,3366.763121445775,-5400.993115411274,3884.1881424896023,4623.782942677306,-6656.717310791888,2784.220084315139,-5691.363762705121,5636.452144951347,-6344.980130745558,3938.0283234941808,-1421.631265465669,4940.588542540259,-4145.6814094575275,-4386.229020511886,4658.417476613845,-1731.4972957331377,-1919.4247316906124,-1792.6461816223775,-3919.5851017104533,4833.267950475912,-3915.8897862257913,1737.541837320929,-4026.973726446362,-4486.766365514853,3208.4088927585067,2754.906716321808,2338.3596552660606,318.54814050269783,-1232.2548230596042,-645.9394819235896,3644.9557421399104,-2867.4941662686906,-2846.8091501821914,1535.3791175574554,-614.4264444609825,-3512.387727575817,-744.9305478064437,3175.379338050219,-2204.1633148551346,3152.431573987683,-1999.324357706275,-1003.3717768992734,4975.8553566916535,3924.4729274953147,-4726.836318994194,983.7652374498612,1404.6574252587502,-6345.0135489966115,5304.347572890267,2157.2277822257556,-5005.764571676529,2240.491678760697,1733.1891445107906,-1225.5892854627145,1437.2290120663686,-1823.471984950071,3034.927802895137,618.0589622554954,-2916.3872139249115,1466.89915673553,-1532.0789993502503,-4003.9535381458495,461.9401255966228,3326.1145768876436,-2233.460967123688,-4259.746276850903,-1361.3592294584691,-519.3708717472186,5425.51880155699,-4693.831239381406,6568.752208326086,-4307.159275971449,214.0631247549114,3222.525422066315,3024.9047641175052,462.00931339689,441.85942284690105,2208.3032046494063,725.941619009396,-433.57663474212245,-850.9787992752197,4160.208605564292,-6112.781974477025,5340.175501921704,72.76293924742232,-1436.094736811577,-1083.1206030550027,560.4653859964753,-1770.5457167834677,1879.148563936124,2303.2112304741922,-541.8233121581944,1419.1967903482778,-2049.1860848096767,-443.9713919634776,2016.2484234854624,3722.0824145372526,-1233.8260921520657,-1394.7702242567186,3423.7414334211644,-3367.695278472926,1737.262068155365,-1407.6133945389677,3367.317796152008,-1174.2582156319427,-8152.432960720363,9904.822276836463,-2374.076916953677,876.2318119790573,754.5341296782029,1055.3623375311556,-1777.5503612560992,1768.308066920974,-249.38626955704524,432.11170814798083,1330.4530820316897,-667.5138432820419,2348.5910962034777,-1233.4439232194081,-578.533671707327,-4577.422378429299,10160.554004510328,-4910.44811067059,-822.5714478662508,3448.834760583317,-3962.7114928483334,1085.5418700687087,4163.298003615546,-3067.600073772537,5538.814518242442,-1526.8894719579764,109.27617644406907,2949.8591566078885,1755.5989672916157,-1975.2216615092561,-961.1028810044019,4448.720575192036,-7393.825294707371,5696.208122266897,979.5547687364377,2598.8560095762646,-3361.980714716608,-1332.7960324200415,6213.673789697757,-1562.9372944821591,-7066.310779034094,7247.575524994474,911.6535617274526,-9686.762475640719,9503.078367599259,951.6522308874565,321.6089499129936,-64.21250010503951,266.4676754761108,-1104.4638218521054,-2350.2653851471796,2957.628747065682,-4968.720613261331,3174.174687617741,-1281.8901989435365,1222.8618030176137,-2799.2888624266807,-1317.228746200095,5396.667289894456,402.3674235538214,-7778.752683688305,4416.677556825113,4585.474367124925,-7572.575774885391,1078.271814964965,5733.179462139831,-2203.3736318521264,571.0093796193578,1754.21037958374,-3098.900935712368,1744.632250657286,6504.411670245161,-1540.8018524717452,1502.5440433787962,-895.8368140320033,-4907.343760881332,3345.6976747257477,4165.880713880419,-5826.991786355409,1490.4462219036243,-2994.2220732345177,3183.712820191847,3806.1128845201624,1960.4572556666064,-561.6705321256907,-2088.1085309415625,-3332.1233037293077,4378.915854092985,-557.9711057431172,-15.982658918857705,3072.0960490946036,-3736.4546277444997,7030.0928262361,-10083.17789952077,3662.1232208440606,-7256.404310102018,8797.78500413253,-2678.321519774103,2746.4343674999727,-2339.747541407072,-6740.332231409729,8577.439461119004,-7843.187339687574,2394.7477854607596,32.93111368329031,4371.986162048848,-2178.657245652317,-1316.1578280732795,-2764.71381919297,1639.8130980176147,-4308.807924999811,1367.3297854578018,119.16914958729929,2821.7520970640403,-2172.604810400303,1018.0552411817547,-417.839381293664,-4702.871156349629,3094.553644621925,-1706.838568360492,1049.3786564648308,-4799.765161738893,6051.190598892001,1159.9359816697386,-491.6068273128934,-5355.190426271192,-245.21597977484112,3294.1468946345894,549.672152089065,-697.8650970036546,2099.49292116086,-1611.658031309967,1014.5436629844709,1671.0188969607582,-3303.918534878442,-2071.5745162720173,-3187.8093034118524,3285.1904669658184,-426.92904720122743,1597.805773611053,4026.769457853634,-5345.972013206374,-555.2859362472877,240.25830329236422,1471.0776910643617,-1303.5075819016188,-7523.189728459134,8482.850348087448,752.5719908694451,-7020.736623111475,450.7904665453478,3400.9827124821313,7239.093992166637,-11952.719243313826,1221.1184454361921,4536.796404536804,-1395.8510993184352,-2138.5004653527776,1565.8041843049807,3640.880351362885,1701.6371598101302,-4748.262071921813,677.5932254218418,2421.0545643657133,-3274.925455435828,2700.200789126545,909.0591536237739,-1142.6021441956261,819.8630831618841,-3004.9834272607054,5725.218811318916,-4076.0636754905527,-244.58314825408004,777.5079684274829,-512.1067230586316,637.0466041393388,3255.5853212998527,183.21816519913997,-979.0231767002997,-4754.028628683535,-64.92404203109385,2419.6633448449675,-997.3951515453859,-1919.65228958593,-4284.025098016738,5926.78434662478,-2017.4140462068199,-954.278563000875,-864.8172854614488,1291.3442645545251,-867.0869087492612,2700.1364376039187,-748.2557523749002,2257.90063388963,389.0081227855255,-1926.806007503862,1106.1248211264365,400.08345485211254,1006.4098299343478,743.7224797647508,-480.6076054655051,4630.548603871332,-2553.666672282277,-937.8839147115385,1457.4803954011156,4107.640621256791,-4975.2856744718865,6600.911405459465,-2427.4944374885754,-1962.8505329900374,1079.5301307786365,-2836.491886152622,1864.5931967601623,-4058.8782294359653,649.4309523264409,7148.697718046829,-7015.743875071381,864.3090358333008,5262.296755038238,-5314.1083346573,2854.627011980334,-574.4213171304145,2021.2836787368972,1731.9008991068165,-664.6802013950999,-668.3576705650925,-13.18278561084775,3870.9746717686126,4567.275774487122,-743.392370053821,-1203.9616256726588,5255.768584249655,-8278.797981826869,4727.239532481339,-2079.183401475413,-2419.919390382098,3640.9649904413063,-5254.888102336961,4378.366968920547,3590.221170516498,-6888.651935440044,2228.6096827566607,6819.885705715744,-4340.583088023739,1261.471542716142,1729.5381209314346,-3530.7183385668595,2771.9499123354312,532.1903282809008,-4308.33490196861,1499.336931268873,2061.8643215155716,-2131.8168721818183,-1258.0005604095497,1478.6031742355515,-2525.694099220795,828.652737002196,4505.567468686171,-6136.588948476165,268.5644133691491,1031.0604628859935,-376.0464363038022,2654.0829219121065,-1632.094661775139,4457.003762057445,-4240.7504414398045,-1866.618896896192,-1696.8035547586799,608.8790354357915,-2083.523414830641,-307.8824507803905,577.2111049888977,497.8424376358341,-59.36438328540174,685.5598167573304,-1294.201652007272,-621.9712689278654,-984.7326428400341,3236.7857761711953,4154.319044756043,-7627.759136212898,3446.9141382304624,3921.14934625286,13.96351744032032,-2227.669273244782,2141.8741223782317,-3044.9715541019395,1560.1432971102276,-4434.6919484796035,-1298.4421525428506,4798.021978042655,-3563.3184126251117,2675.3316526710496,-3543.3737731350807,492.0136590950839,4403.170860628702,-6202.849910625688,1701.7271655946997,1699.8273728514564,-419.08138259022286,330.8875743893956,-1972.269352657187,437.2067885010926,1813.8135638689453,-4763.728926324771,2815.2383792010414,2303.2846273641444,-2269.6999077079795,1063.8867950409883,3547.1465459168294,121.21177993940182,-3186.4760148150917,4635.671928136371,-1051.503979303707,-3409.979567223498,660.7303119163439,6874.295932564146,-1664.18997218086,-3217.9431298440586,-1449.2210176000517,-5605.637500710738,5748.76373125328,2172.3155113459743,584.0813189703919,-1862.8690197441385,-1321.737548169524,2302.0345197707197,-3393.4236084449894,2452.3755178612155,-524.3357773751706,-566.3560004622641,-1390.5437257036945,-374.99547553584796,-7147.110782403058,3153.571971454257,1167.8208408599144,-7242.641492769782,3604.627024086549,261.3064019033245,583.4949696429557,4764.532850406905,-3369.1013368430863,1660.4741181055513,-3575.712710552053,4943.285456637106,-718.1793752451172,-4142.046441514732,5518.049428979106,2336.5578502884628,-2124.1440566120014,-1119.0113362275724,-1256.514132281697,-716.332410661254,388.15867216262455,-2076.265899629415,651.221340496293,4728.635074871248,-1317.9193549899187,-2274.529022246062,4078.5526785287466,-5290.338650924628,2092.6746396127637,-173.0891612880604,-3941.9632810002604,-543.1717917039957,8652.333068381435,-5000.210096447401,3215.4760421181873,-3814.3247838003385,-770.1123027357031,4698.507325495715,-3316.158303838248,331.7305226593035,26.037322382862623,-389.9660585028089,412.58365741268847,-2501.908098416161,369.6144075980054,-487.8313026528714,2967.2392383959536,4757.365325640031,-7104.801114962495,3023.168096806971,-574.7274408998246,1490.2454693906493,1138.08852219231,4561.131594827386,-6412.30968919786,1870.4870328154375,-815.8343166831313,406.29358457333905,1062.5617148781496,-1837.631442963555,-3840.933557514349,8746.66151354732,-6760.248730117055,2298.1648212979553,-3648.836268268181,3688.2068708294773,-1257.4418097789426,-5167.221592397521,2936.2546088708937,-6453.800124931228,7669.324830748037,4183.9115354968535,-7536.193862536523,3780.858978124063,-4070.3838704457144,3790.2281561631908,-3053.8781937253916,1008.9577539958776,-46.8970876535752,2077.324106485137,-4193.445961603039,1734.441358067467,-2683.4202703011274,723.9475294262651,9048.489722040209,-7726.989297401159,-1759.3647185258774,908.3041527833572,5534.909552322738,-1232.6091739956632,-2979.1841859612487,1275.3872920320457,4560.432673353113,769.0293841674571,-7067.875650567606,4335.508453809505,4591.282576179929,-1156.8524215184593,-747.9849668568748,2175.1074692585,1082.7549904662417,-5689.587129802027,3530.7085152576383,-3037.2870192473556,2056.654744450782,982.764929563833,2158.7354653850216,-2939.594296068146,5569.792425936496,-88.6399762330082,-865.4530650263645,1908.415251110083,-7271.046144739805,449.8069839282259,4252.088617190504,-588.9185920390962,-3205.662349165581,698.6245670417713,2241.78306998842,-639.6158421433068,-3143.5584647794194,7858.240430294525,-8033.955360786885,1736.1559737087011,167.2541848108857,2076.878252552172,-6739.8305520305175,1903.7338797620976,248.51943723174293,149.10787790325557,2086.8940016462457,929.8143627747174,-2000.8109862973713,-805.2282740212224,-1518.7792151468136,-405.22338503548855,3574.0517579021434,-1992.5578330163833,-1316.8268247659282,3001.4518988757864,-1615.3686225077365,-760.4317109192068,-2163.9970586289564,1910.4866713551862,567.4980720882816,-5391.723310653787,7436.109211783917,-1486.5735533224758,-1183.7402512888586,2635.291580798539,-3838.173121130505,2101.1497516349123,4854.993172709868,1219.698248019314,-2890.0154157050883,4932.837465091591,-4528.023860629186,-433.24568591793957,6765.533627318118,-4552.042819166147,1744.881132240007,-1105.3533078919015,796.7920474839151,3186.2175092453335,-3400.81632009054,-678.3194671183855,2699.4504619018576,-3747.26710000382,-125.00270023386256,3202.734513708365,-1493.2936024791404,-2111.3773398097073,73.77786536319621,-1018.4851918184837,-1668.6722209570626,4595.656356684077,-3093.269704305598,-233.58617910820232,5729.494418058502,-65.21142704284611,-3103.9345058035706,2438.074925451492,-786.5692775052547,-2141.580215626481,3512.3015207992667,-1182.8298702561558,-683.8254356472981,5192.570038384589,3028.7137842852994,-6227.117906095127,-4174.44423278885,5812.4272805704095,603.5865342081848,-3482.8353512489093,3935.1160353623254,-4142.792376624984,-366.37756372037535,1605.7316747909679,2813.5853178058537,843.0971682869306,-2295.1019067320763,4728.593958956294,1237.8969628013351,-2004.0841619622986,1620.1495832640828,1840.2540180933318,-4017.577250332337,1163.2234124641013,-320.5447878240796,-1739.023130293694,-1966.810085161273,3914.76183766138,-2906.786079158402,-1849.356283983934,2254.112157291906,-1321.6838877257733,3361.816900256446,-2133.8478200409554,-6251.233014963125,7189.55493594995,2445.158202706881,-4923.152568866302,185.73528970237953,-273.7209982634373,-3668.042513891419,3428.5957820813364,-44.631636038197705,-4218.565239970956,3079.828423588331,-1820.2266730127228,-4554.3536781776975,-3636.445993259447,3767.0439043643123,-1132.4174261955718,1433.459063420129,1616.7029911362313,-4551.035607506222,883.5277857825001,4927.917114424642,-645.0548161979448,-2820.1446832085926,1043.706756694683,-806.5510574930138,-1925.415320204684,9602.060408845544,-3964.6774494672163,-5207.016333072364,2976.123658302232,4090.879388823641,256.0266030162875,-591.8277375019846,-173.92266159453277,2808.993680150609,-1361.2742169643636,-2497.102726736778,358.8326503720256,3231.91412493087,2404.150667613493,-3166.1392097690846,2454.926458464196,115.30616625192248,-483.78669028213363,2608.987551255939,-1162.0530279461734,-1527.246798668929,-471.59708950122325,-1121.2354971323844,-4176.428010257282,3252.3401839541275,-1278.1956552910417,5238.737012127692,-2252.979824472768,-1540.186087730909,-2644.7818622186205,1865.5668047741,-2293.4947922398806,971.4129354370801,1980.409486174251,-1664.5214300903995,-5174.719092481612,3181.1472955088575,-1555.6502323726909,931.9676691976623,-1576.7107216882175,1497.850197549891,2857.850208839977,2865.430526272834,-2385.4171582569006,-633.6879012644631,3066.1537273912895,-2475.2200624238335,-634.7661713110846,3414.1406675119947,-1568.4753543047339,1183.3868332847408,1097.029352158831,-1322.507608909128,397.81063096135983,-946.1505006594482,3424.823749819372,-565.1657707670472,-158.70277586524455,7501.3434515476,-3954.352049300558,-1583.8785432451439,3473.356475054578,-3659.469572365417,1764.2129637671976,-531.5276248690234,3245.7749826721165,-4497.686564739385,-2159.3280556042796,2023.4173277881089,4717.096631801252,-5794.562469461877,822.4717396800925,3630.8074375851365,813.4722611436216,-687.2123420495788,4302.195475341852,755.77923443536,-2196.371164933458,4931.2963319622095,-6785.550311205102,1583.4397077003814,-2720.2920897600893,6712.11849359388,-5997.274303791204,817.1828580120417,-865.613546877311,-3769.0481686368776,3307.3885135132896,2974.289926337781,3364.248790064292,-4584.051939141187,-4932.703345197095,1973.0942758558353,1075.786713906199,-446.19049508488604,-4059.0664750880906,1907.3262180539928,982.012457309483,-4680.598987803114,2013.9748788907204,-3445.2487851327687,1138.5885734005005,594.9877886721882,-3682.5721639954077,3798.0765177238127,-3218.235435723435,-5054.544747954356,3380.091016409801,-2956.3786083180557,5757.285567638234,487.1636126722396,4582.032845173723,-5003.309409365402,1067.8309253002772,-3023.100974259336,2916.410013876807,-1597.0579227473843,72.92891358513876,-2691.416667085842,951.9380479856013,-4080.9917821603863,6251.8575375185765,117.2261912665681,1487.5902016864968,-6532.519860987258,11351.892276936802,-5858.916137421734,-1141.5633311727465,-2812.654034898506,3265.545551964602,2907.9913774463125,-4096.866064220242,-1597.096089889735,1214.520077999387,4210.4177753040685,-7229.170094962366,2459.7925288022934,-5955.973931255086,7801.078918140847,-5110.357904122559,-7987.843815677037,4515.153037345516,-2891.666152693944,4494.085056167783,1435.6309835215538,-2947.248154933731,1993.7151557305133,406.69674023363456,1647.6209030826128,-1871.8351702199654,-323.9684330514631,-435.6643900095182,1611.3910126320666,-2879.3417257515453,-2541.445023515222,4393.9094686228145,-2113.8266712137092,-2273.8922737914268,3940.1648695522654,-2617.266175053276,-3120.087228162623,-1697.4794178140498,3933.227108024869,-4355.551014458947,3070.0665594449797,-574.5363388343745,-4892.77919272415,40.560514216098234,808.9975231411943,1209.2258664887306,-81.47781061215923,3140.309248731694,-4487.428286791158,8831.12401254168,-7312.761943266354,3695.025520543774,2381.2282750231493,-3528.930789402491,391.0591231640749,2871.7392452304002,-3558.1204854521134,-649.111388829942,2423.7984809286495,910.0693403824963,-3073.0248394640944,-4753.049929339925,1416.5566135135418,-3102.525056341663,5115.618193880326,-5597.7669688917995,2152.798092564778,-1955.1587920898655,999.1093439980375,1835.3693958029276,-3036.8311506899186,-1299.4220655450572,-8969.077479369422,5309.345576526971,3033.5596544695086,-1864.6605194103968,-4716.767771679656,3659.021550573228,5211.106641358321,-4067.569943466517,5835.709984406778,-3692.7553268968054,-706.9774020743588,-1585.6812694820185,7194.351596284341,-10140.659499451145,4290.244408196282,-12.772847904257214,-1767.7831547435535,-201.38629740267618,-1522.2111664426413,2612.7981414521823,4756.483981956428,913.4862038385077,-2791.098420139012,-3748.597177674012,7057.89564168861,-8051.4432897852175,-1367.4782640289725,5651.774952168746,3891.3715907019664,2660.3060113164165,-4094.613911313853,1522.3860668150387,3916.421845682668,-6567.909004463846,-2639.9776763786,4571.473109393011,-3365.742291955995,-2043.1004342921515,3225.6654935329952,-1577.3077040820247,1169.8753730530557,-292.7668505673805,-301.1535275534268,-1293.8498337871756,-1682.2515602862886,-713.9710055561472,-579.3355914677188,4962.479999258655,818.3534876693309,3842.854236610157,-547.4370098722627,-2260.7514475107587,-2568.353153090883,-2655.0937873392527,2385.207809546587,-2441.819560900906,-2399.9383433565436,6309.269970050527,-4182.032545017599,-423.09196627056536,-2588.136567171085,8399.286500386412,1373.11249554372,-3506.1760068587664,-1226.23933057299,-823.4270420723458,6259.544515137759,-3777.05147794582,5219.516159749985,-1982.7181913551626,1554.7132527963156,-3196.528902547603,1340.5631865017017,1410.5541870453715,-3107.400555563952,-1734.8751386868344,2302.736903036979,-1752.5421071121136,8345.235660128621,-1772.509618376341,-710.46783863859,3354.70013313481,999.595275759894,-6680.834326979655,3298.6530549359027,-195.53029963799435,-1996.633471802981,-2153.0963115730456,319.19651489812884,2420.4892714661046,-4295.256362838905,736.9872532989481,2265.0861734602295,-5238.031185345022,6054.249685278816,-7442.864886700504,1407.0044923749895,1979.3970640797313,801.5395980403063,-1068.0631080278959,1407.8490504115634,-629.0579429637389,-2339.3583632778364,403.20049074848976,-178.74360190690734,-5538.665586327424,8040.895860332408,611.5148852325025,-1411.8630102810785,-2463.08668748403,-963.6167586840312,-3433.908663015438,2900.9758912354546,1577.9791938041067,-224.67285769989303,1987.45634052018,4896.733818340066,-1785.218197619945,-4823.252683616947,3527.3865413786953,2934.8884514960378,-5934.1028929979975,-774.7952146518608,4152.782044502125,347.21396402085605,-1199.1803023501982,-1493.9060918533735,608.1717106244026,-570.3780040576787,-2228.043767809772,3807.5991319673367,547.0140397023173,-1830.5327144313032,-2058.0390090779747,6396.2497038045685,-2228.3879091239532,-6609.841741526459,437.71453909698624,-296.78173131037545,-124.60686919298715,-4033.961739797318,11218.502896380845,-6596.376837552782,2886.2314969363583,-7869.063517288891,989.6443860330123,4019.2047976537433,-9103.754087730716,2161.8787423103404,701.856302010456,62.24867625704464,2561.737523637647,74.82233116445313,-5370.675787718723,5245.9042316745035,-4191.970625518332,-2773.089746964251,-978.7264412829205,-2983.79093302335,4740.319719687761,2372.9045114946207,-3014.253738429523,-4765.1139717015085,2715.4849187101545,4347.884939109257,1553.0738902154603,-2702.503424438704,181.1684527361778,585.0070171879024,-1805.8777643674828,-738.0498889533089,1463.166878718013,419.7628524807634,-2668.4642834193487,1304.5329214681126,1839.1328422358724,-3727.337734957733,-1103.1403539570053,-1254.7239801636329,8378.50426569131,-2867.7146079812464,2763.043182872714,1461.13348400131,-5822.618478523395,1880.7932818416964,1802.3229344883553,-3480.9178267955726,-138.04065180907506,2920.2400217130253,-3674.44173889988,-5833.7450564819355,3208.477190257894,3821.7265920429327,3893.705188963245,-5138.138737424295,877.981691559439,501.5742992603758,-864.6682436973712,2303.6889168603725,-6705.417900106882,5582.264914331539,-3525.1330345691326,-1022.567419297393,-2859.609414540909,607.3298284609897,410.74557840097276,-4940.736158935724,6343.175899582106,-313.50542450594827,-2104.01462558301,103.78054369406105,-699.2100883295775,-4610.559538298948,-626.9437596729872,3913.0329915903003,-722.5084552315442,-2068.8263254982085,8567.244533841362,-5731.652804860427,-3751.9425010795985,312.9545044659412,7141.514779004726,-4068.2315585172055,626.9346178876829,2919.0274629956484,4329.740262226424,-1971.1231185061592,-277.27644390573187,451.3465830324453,-135.68918741699906,-1287.869844975118,2236.9311032948312,-3423.868293827757,136.86529020078694,-3574.6802746650415,5213.936307166206,1542.6409133684322,-3134.0954626307157,2187.8481338782135,7637.227190846261,-6065.600597485123,-3705.0863641311107,4433.978716074398,928.3262719187011,1479.509649023524,235.42681421104294,1222.6227318505685,-5017.657052617429,189.56971195641515,1294.6938100713617,2962.066739054715,919.6602780770065,-2787.210956458681,3133.9972063735872,-1980.1097883301204,1424.4681150293193,-2252.410756679428,2226.5122467343404,4902.860862683816,-7687.922454592627,3845.8131737666554,-7095.062561534132,4502.489577969132,-53.18544500315984,1950.1845148726225,-4998.144528986027,5295.094440373239,-5167.704982080125,3571.1916288845136,868.9050019601162,-3195.3989103946833,-2972.3930464507775,-1251.1355515489731,6927.70314115869,-443.7765458578503,-4786.6992871056655,1898.6653118532836,6017.5032047902505,-2392.160604607483,502.6183704870571,2033.5744396918412,-6240.827810380401,7210.015383867594,-3999.6652897650824,5964.645675759953,-6222.147053363841,4538.343500063562,298.1021979664866,-5738.540170080971,2568.865282624025,-205.53437693541105,-2484.130131650838,-3525.135059543231,2140.8145025880967,-88.87976346042284,-3753.263520391169,-1630.6244428529963,4944.77166690088,-128.45880664571084,1193.6346466748585,2183.59921345164,2716.159976740635,-7579.609704921318,-1685.514497118391,-4204.859293836133,6146.334663589691,2492.0613648274857,-4555.545532851152,1116.2639879015821,433.6110155504823,-1596.2707679857087,-201.24427869429732,-1042.0912205458417,2119.9886277069327,-2397.2822920839426,-2010.5202936558874,107.42653800549444,1692.3982545072272,-2710.8827766145682,2600.9589527764188,-2309.478213173943,4562.798487288793,558.6036338765547,-3334.1146162945997,-1753.714602673108,2904.199101021626,-2099.9587336237887,-2340.594597757247,65.75729479914433,3770.246815345048,794.2406504823862,-2470.0696263215814,-217.33515607441444,-3280.6510316300423,3455.912482156647,-826.231298920815,2651.0341247797815,374.1791529720514,-5269.12450235011,1855.3216831129168,2023.4134923619088,-5802.242670772697,1103.563827233438,-1814.3037245199405,2710.5801620337465,7888.976992748182,-6446.227543945226,3133.4462356903846,-3080.9706354929945,-3295.4887763677516,9889.493862681597,-3129.321783462196,-5702.332111572166,-4341.7082082527595,2660.3162525396533,-1172.848460162414,-1622.8643089120214,1695.9916412360856,-451.57522164549994,6237.626414200101,-3620.4741874934466,-2159.692440379315,370.50579045704234,4934.699930486399,-822.5975224032425,-794.6392093780606,-371.07657206081115,-780.5173624483624,-914.7435180490924,5388.706328663547,-4477.950579314174,-2059.334770370608,2057.8889410174797,-2345.262810836492,1593.1513895417138,54.04022719761808,4117.215741118472,-1981.8210121989325,2638.2397527120916,1681.642192958581,-6252.610634218508,3007.944412969859,647.2557502019242,4420.000366524642,-4972.865364639458,-2740.387525357789,2908.2579884645565,260.67959312637885,-1409.403584742927,-431.56453828709704,-4229.174100474451,2008.7431646480786,-338.6390620145393,2791.0771516182363,-4013.088386193013,-2578.3454097451527,4326.432517254448,-1507.776853197096,3190.8080408730375,-4371.2302833915055,862.399093671378,334.55821025718546,-149.96593189944352,-2975.7932625082344,4298.578050351822,-4235.713518332885,1230.469729504849,-3794.48493750914,465.8908487811678,1227.9474997709806,-1255.1154016127853,-1085.3160356460774,2871.105598673314,-433.8451277211378,-2212.6247737115536,-3142.22102838484,1415.025455748097,117.11040478353469,6756.741143802508,-853.921109531876,-811.8084871780718,4054.827885495212,-4489.499163480561,-1058.5172333638695,1806.466854440276,-2802.169693245755,5313.650587359422,-6656.750734214631,-2529.448071934676,2398.5392311620067,7104.706300498414,-4306.429680935652,-2373.703406645974,-1008.4101747250166,1370.1235732142618,-637.2952126699003,-1837.189119086811,1646.4028332959062,-231.37625805158225,-370.82205364775393,6022.982499690944,-2531.138845719864,2241.374878350778,-4703.898962962434,105.7839834263342,279.0026292855548,-1375.1514310957227,3745.2149243083627,-3693.991295179781,6345.613233285454,-6101.281113889697,2762.3323987602025,998.3017360987391,-2317.255293453866,117.37151114711713,1757.7455751588307,-4114.016824186803,-443.70898977196447,-387.945634126083,37.51830023252913,-2248.834439635063,3358.206662048831,-1735.4393078978426,3368.9354951450437,-5185.826560290112,97.90607409763113,5363.859905580628,-3992.991742047402,316.9382384658467,9671.626190170475,355.91287642798966,-6959.748971999714,-4781.762022845101,7200.11491833646,-628.8478909500886,-10566.565962653052,7304.9858247905,-2103.367935203043,-1100.5427973711421,-1605.8902623997233,-1987.623492087517,-1801.2473917582518,-2683.5734418521297,-4115.644570658903,2281.1534356685156,3019.9556083894195,-248.45404498561132,-1460.441449907541,947.3801128342357,-2886.194911935084,839.2560004238131,2973.9788272942205,1524.2432116611442,-3550.5958291780316,477.5142141517619,1611.1344660047575,5902.949282267375,-7946.178362032648,1482.6653070774662,4288.790457661992,-1063.7535225612373,4649.526002556803,-826.09281088028,-6942.640673602032,5180.397074936005,-4639.7072927606805,4953.16593411348,-4210.440481903694,1592.960547888947,1334.0429893182934,-1926.1991734908981,-109.48268114108895,4086.041438703329,803.2571636690134,-6607.385960403954,3026.5185565792785,10103.372303250535,-11427.14849026479,9026.576433404436,-3261.661775481251,1964.8789808200393,-2808.4155290502035,3308.6532693418344,-2304.224602610574,3724.29106850059,3003.0229196410805,-4864.518948523412,4659.634637672818,-4592.441955791731,5444.715652077154,-1872.0089306191915,-2349.9165369266843,3160.381389731631,-1935.5534075540138,-5914.116058911745,4450.139682410022,5172.29398811582,-2986.2055292448854,-2214.427903506417,587.4242538443825,-2673.0354665721206,1571.9338714658575,-1860.2739957452293,-32.46045691149604,1904.0179672280894,187.1979180729361,-3175.530041051999,-2137.723439350899,3100.6336984337236,1463.7980849187227,-331.76376497424195,560.4984036242494,-3121.218326623206,4717.559921638866,1323.9587536767056,-2297.0746598185874,-1991.4742659919596,3390.01565771254,-2022.6528020450005,-4734.872888654497,6363.413442881721,123.93720160966717,-6226.08461441607,708.0084364252584,2440.9269005851384,4780.174419350235,-3488.623138094809,-200.14570888615512,1367.497867029839,403.0325635006201,-2136.8232850310624,1498.3139796839941,-1171.0119614780606,-4149.709279999716,3752.839252000725,-1783.4481891651212,-2081.4410348075835,452.7755109965073,-967.3239935000831,3424.557034228397,392.36833527722587,-616.8822502218983,-3487.8292824831833,1948.4286292836666,-740.4293691575556,-2421.9894057524284,5177.128955869419,-2396.420948766467,255.27187009860478,5203.4476810543965,-105.03020607190032,-9582.581915162544,7477.432204933017,-2043.824571669086,-531.427255258484,2868.669946238002,-4334.045617452736,-485.2228794574897,2327.0476471254206,-5959.1883283921625,-252.9272715179529,3493.8652763773107,-1771.0204845371056,-1067.5449892794845,684.1208592695604,174.11817532881673,3394.3687371074197,-3069.263863701461,4950.596137593955,-5159.725354587022,-3053.8045680316877,-860.7228685252811,2098.4373962567934,-135.48587887789444,2033.984829483932,-330.6036905878237,6001.272460170996,1388.9715022067644,-4386.808110806828,-676.4911945228549,-4411.090639677386,3914.5377301838516,2607.261884801583,-228.56417840058282,609.8713088261024,-3205.319841485025,1803.419201570741,-820.3472458886691,-1420.3533624407899,-3857.541797156562,4032.955911513774,-4725.23435914991,8909.313769406344,-4747.435100739673,-1702.0232695416075,-868.2231131301118,-1508.68781642062,4359.203891244764,-3684.501014912829,5691.582114961382,-3590.8693587520565,797.6172970017193,3307.000906327873,-590.3772909191215,-1300.8407755592043,4657.439383616491,-3129.145225976367,2850.538888975516,-3723.0660815163383,4296.213521409997,-325.07119132126894,-1697.8017504034308,2644.4056831760186,2950.6687242533017,-2385.1562029352976,2963.5718736545987,-1159.2462859951243,563.5704931217331,-1166.1370795888558,-1837.3226590351726,-1043.0700746272619,-5463.849850390025,1072.6199775507107,1271.633214296127,-3815.4171237765495,-1566.5292694442653,-2414.796348850342,-253.54423735643823,-1953.449866598794,3830.504707832503,1596.7294264582006,-857.9156318097375,1294.6714741393635,-256.37415360916305,3084.496018992666,-5417.969282971187,1390.678835307454,-45.617399376899264,1408.8962065034198,-2687.7516393305473,998.4167121744536,4653.9529462777755,-5195.2204929505315,7129.915147122732,540.1440284860912,-6313.697336977621,4690.608369225923,-2814.025533126891,1086.406452905555,143.17528749637015,-1977.6721520693734,2442.4297008116996,-4677.791292562707,2121.092200495404,-197.65109871265318,-962.0584674042068,-2699.5199704477523,1813.284631006259,2579.3172999994654,-3931.6217892652057,4479.901385482845,-240.59171113680952,342.90172460095624,296.81085727328406,372.9856375753456,-4675.781266215368,4094.8414293663295,567.1296432309757,504.7096918064409,-1748.2725007712572,2298.6518843536123,2215.325812362129,-3951.7058421698416,420.0782872427602,668.1846074781586,-1453.0213997616825,831.235841716964,-1691.9300222361003,722.9842468219497,939.9729777941025,-4674.533756514273,129.64618339763268,-2928.071393519771,-785.082718235747,5343.840319461222,-1735.0907102801389,205.8467322111915,280.37404443494603,2007.424507154607,-113.771910651121,3728.820582365247,-1649.3001874126223,-1827.188361768333,-2584.8069565771525,3369.753642070352,2271.1135727076703,1981.959182466692,4650.664526629855,-1065.5603485188085,-4132.34978918505,-2971.984314704911,2091.150735653201,-1409.9514901795098,-2033.3037625723925,2379.1024017819786,-81.1546076044072,8319.906283065058,-4537.365469600728,-3218.1789725916815,153.85142048752402,-2561.2777857436367,2322.1990836221225,-4319.580869403606,12198.93947077823,-3910.260477577917,-5556.167921286391,1156.548720791011,9462.719583056321,-5005.133010988547,-3175.172989681727,-609.7630585242548,36.241006144257696,1699.8540799080783,-1759.4322521048452,1028.1782199081017,-450.8303513100039,1572.6638459400679,3637.2510502348637,-2839.0567196390393,-2002.717528992585,-416.15255338268645,2757.54374679272,-960.3293101779118,-1864.6650573338195,8175.4395168896845,507.38350468141175,-2880.1454903419594,-34.304796382734274,2329.167084822001,-942.5010020228714,-3966.982555494452,4014.7735623781446,-858.781449144441,645.4646923424173,4121.332698074468,-1691.5472386487747,765.0951068921083,1470.1921881459612,6209.592901242143,-7247.574510527897,1558.3479246465943,4439.735410409285,879.6150903827034,82.86403296240591,711.7275728012537,-581.3772484355703,-593.5915231214018,-86.20417167981144,2415.313472628887,-910.3080597113699,-582.3397965647266,4463.92294092381,-649.2182472570539,2765.840056694138,-4579.499085345903,1011.6133184149079,-2748.4483960231137,596.4584576781308,2504.16197457167,-1784.8305179896158,1679.0617686661694,-2753.2580992893013,3416.382842474211,-5925.971765575632,7690.956744909411,-6131.5355388361795,4605.883537712477,-3545.6499741106195,711.1277082870957,-4766.183418773773,4794.132087056197,2863.0338236810703,-2980.544482299747,1782.5264922198703,-161.0479034791264,1921.1016044527607,707.1776484210559,-4441.650644628888,-2.8712646676271287,3247.739651744134,-2993.1241472957668,-2224.014189565062,3731.377416579805,-1372.5911671099914,561.4418768932742,-123.2911705602617,-528.875583821108,6320.989258929826,-4921.628101639286,-3469.102827428146,-2760.9345394580346,6163.038043605617,-5278.341046090821,4653.546665593923,450.07198893154543,-756.8063709691842,4233.758597078995,-964.3449263647831,4009.0636165738306,-6356.680151386091,-5118.397378052472,5090.387339614019,-1018.5337101414248,-3454.057579136514,5266.533842438922,-2912.168220002161,-666.730284864416,-3434.8054613452628,2586.8743897518057,1294.7432323009248,587.5312926665398,-947.3213074589578,-1629.742889411126,2794.7251660924694,-923.2121656393222,5233.178028169811,-8039.432447938844,3420.344457152356,-3016.095155293839,2119.465126409157,-2902.8319747388214,-1652.3120172602166,5017.206720694129,-3565.650746294569,-3548.906808377482,836.2917343451954,-1317.0179731656813,4346.014459553547,-872.5777769314641,2597.6934966436474,6565.623446748654,-6802.00827233406,-167.19844808351752,1668.294528644087,-435.04478127895607,3242.194819028196,-3646.2246353497308,-1162.836809280315,3634.64901078177,-4007.7888823725084,6268.674165270157,-1405.2058560158714,-5486.668866367982,4024.423037994029,-2003.719119198431,1763.5836731373063,814.6956481810458,-2877.5809912757763,2885.691889715296,1431.6469389568301,-2688.1680456638687,-3350.3884839941734,-2103.229450048247,6002.992395110587,4824.355876057584,-4291.090876742382,-1453.0479316043632,1096.4928428635728,954.7399250284166,3600.899625023131,-9329.611154539509,8864.23707097744,-2896.9069953309004,914.4151266588658,-3461.0498637910396,2198.599382833174,2005.9422700441082,-6702.879733334852,3220.6683270129283,2042.36058310129,-6193.723030562567,4077.492523072277,1386.7979192330206,4614.116435773251,-497.10049756988644,-5449.167085094133,5535.439900111107,888.5190005891575,-2784.345275131027,-1442.946238131019,526.3843488493055,-7046.900307043107,4560.482200950738,-3877.826194377348,-750.3283743415444,-2734.326098621717,2146.766860049976,969.5106228410482,-4607.459454796539,2216.8264686877437,-3360.5635577929893,-3180.9300203479625,-498.7731047221047,3233.7894981053237,-2837.8372389798983,2929.635755403026,3508.2709044029775,-7915.493323014518,-1610.3491692335042,-1499.4188102704481,2043.189951717848,2623.579288291307,-247.654856069346,-367.3763390133698,-5236.597797919905,-484.95617420784225,2880.7456606531878,-2184.853185275062,705.9732268177924,2180.909789239501,-1591.2899934807176,1226.4310481287284,-353.69549873119485,5918.434736477007,542.928184444828,-4347.771690987081,4389.8551606409055,-2873.066969801421,4119.788538409664,-8407.546480786232,5438.414121720816,-3261.7122325017162,2336.0756841924976,423.91493906989837,-3842.297839042278,3496.8990146374326,-103.83807106938282,-857.1817757747137,-3260.052935162969,1714.1733728651327,3106.4847676970658,-2274.6805290579605,397.6575630745779,-4997.904995022397,9129.146175275024,-4767.184639094519,-5413.878932415767,-751.2870279031806,3041.8656770205525,6289.461906132815,-5338.565632574153,-2882.84149689192,3740.7872388715423,-4915.094881534711,909.0005210690487,-1640.0392706677437,5984.474386690591,-7875.930166806912,8051.454906135337,2136.820576381315,-3569.952618998445,2284.0808509513886,-1274.6418148694024,1193.9880916533687,332.96053103750427,-1518.0359270853578,380.23720079610644,-1172.13228664124,-1695.6974215116427,6655.8401336754105,-4182.342152793398,-96.12557216340814,-26.894060386503334,-737.5183322962375,1950.2357777394236,5545.672797243856,-8940.842278415501,3551.0671180132776,626.9984806844489,7171.529620584713,-9553.041074586048,-522.9947230342715,4942.549542428299,-3584.345510145974,1042.3175204427916,-2105.2418033913304,4095.0596185925538,3785.9961066570854,-3070.360157087593,930.1388924147449,4877.357642091444,-2957.117016287242,-2607.5545428420214,1112.0673969842999,-348.6992208456395,329.13853446161534,-3952.3431807686493,3471.8170537979213,-444.67943780099466,-2083.036321382436,450.7504306150879,-1831.5828359968227,81.76176005160545,-1194.8358598150473,-2023.6028761509037,884.2205651563411,1941.461111549334,-3565.0801867437513,-3850.197821327259,1053.3388640707967,970.7976130949173,2564.0614514007343,-4659.408950966842,6039.044185536502,-1919.4872149551309,-1063.181869106123,5428.1571050652165,-5001.819562257825,4294.772101042948,-3328.616361127202,2384.3433642130153,1683.954762515982,-777.4018556205264,639.178406012227,-2711.4973965147756,553.7803839960186,-4481.736582435632,1845.8671316238504,-2400.260428652701,2108.2724031358994,-410.6636388247921,6054.5466669690995,-5953.877128550055,-1477.4955623795563,4294.6879012472755,-3558.818875357707,-284.1666261653983,2678.3046946114778,-67.16020190677598,-58.662095358234076,394.53492836351916,2463.9066532618644,-915.50464104793,-129.20975397746173,-2210.1963885079463,5200.416457083153,-1039.6113283415327,-3871.558159207412,7354.79193016085,-4092.4937754045122,873.5867935602696,183.81143028233456,2444.9576898390774,1603.9711713586469,-2309.1651777359225,48.43796959674504,-3244.879481896604,2796.5904140497228,-3262.7920118382945,703.0302325269487,7775.257827044851,-1892.9800400269392,-1895.4866834937102,3720.461370957398,-4365.765481396624,6060.9474774922755,-6876.845641038246,2702.7949336101155,2232.373146742904,-3958.048831458877,2796.6975455212273,-1452.8597688489565,-1390.5342935726421,3016.3952557167313,-3839.080262892501,2466.078395690514,-388.87433227063525,-4653.268643773622,1373.5380318940306,6285.138084487948,-2619.4428027285526,-1049.2352120250678,4392.075640076722,-2268.1167223819166,1098.8538896441978,-949.8967928951439,663.7993001723839,-3914.3792049984213,6516.137575878183,-8952.971705260186,4899.525440253776,-1098.5912381722676,3015.579494404422,-7076.973777101591,2594.177918239759,3598.6227450369242,-5180.60586278585,-926.0693668957922,8385.955556437164,-4905.1230401540415,117.85706919043383,2050.7769981567053,-5539.843393017042,6416.713015658219,-1577.8286987068725,-609.3593656363744,3425.301440952706,3594.277566321289,-991.1274740522011,1960.1142606607093,-3440.456697469661,-166.46356826434166,1947.3088078079923,3858.284545281275,-6672.711466114511,6628.663395054342,-2825.5699163141835,-2433.799724636532,1833.2010361538726,269.43758570886257,-2463.7665395900713,-3187.7145911943635,1586.3524372243023,3800.1655072002377,-3949.684588003296,-906.851887924201,2136.2504136209927,2424.8027912029947,-367.21518637852654,-343.44379744267496,-1493.914567608117,1250.3074861184643,1775.6754941121537,480.29066934012764,1341.5762918569121,-3413.279323698812,1910.9121989244697,-1186.6243771859015,-4330.081393165931,3067.3585991038585,-3592.842386897374,5752.385694986699,-7461.9416392446565,8466.093115068401,-567.9743721718975,-4849.841064259881,2291.0337118894795,323.6160497777308,-211.4288216967755,-723.9237898054721,4801.233955925298,439.12766742067566,-6248.630270386636,1384.63199288013,2223.7224550421474,-1391.074535463163,2894.1430154816185,-4073.301874429077,4790.626748433921,3226.6679589317414,-5072.247704432344,-1019.4254610327284,7017.757402548904,-4755.4701089689215,-500.5767375684698,4473.716217169257,-5844.89138738929,5686.474076858602,-2454.150297398349,-3293.7118520012627,4484.018811435479,-3422.451215473544,2848.066579874117,932.639815037313,-7222.583277720268,1622.4153753806893,-3290.002686177729,4155.632506221979,-268.9752868366784,4961.530012297804,-6223.548835820018,-581.0880031371942,1229.6316261308896,-3748.0543964592016,-911.3405323688862,-203.37731929264672,-4356.845786602795,4912.929521628312,-5751.364443514059,11683.827616546392,2327.869999134034,4266.808000439845,-4027.072895657951,1418.3732435934098,-3420.629907814138,488.2550834540423,75.44412394895895,3019.510071586508,25.204859680319714,794.2439111243581,-514.2131918585559,1201.1680398394,406.1294517606872,-1351.8016569877782,2361.710940167249,-5635.617562914608,2778.9609900481814,-220.41294066243506,-2666.033918140128,-1148.3236327048633,5851.408150286035,-2124.8149930167037,-5556.258915412565,-2578.982815453881,5401.555546577077,-2173.909516016049,-5001.929208690087,1129.569284162255,-3125.8441451506387,3293.2009058287144,1088.8946892394504,-3404.73891259658,13319.590877826151,-11680.106493765421,-4115.1948792459425,6312.87909365438,-2154.727298548195,1512.4045975863212,-441.0819958878062,-4631.544524592819,2421.9033497593477,-693.0122359696288,398.5500600642427,1804.447114661932,-1594.1942076335356,-2928.4124082537032,2877.7303624813294,-1001.4713438492985,1238.161208657555,123.23672684039994,135.01371818734063,-4566.938324193989,7313.040033534168,-2165.4166909228807,-5761.766284882324,2338.996400517015,-3533.721827606369,-3871.1147192562294,2534.1150922113607,339.5829753247292,2537.1371450225824,-614.319085414543,1057.5946220972971,-1699.593237098559,-3793.569422299278,104.86429297598107,58.973388996727444,643.4942110481561,-1596.875813372827,-751.6270575768343,-2567.3326615853202,2995.8497011181876,-7296.099835610055,2106.177260128769,-801.3993926257862,1221.6284785549765,2256.5895357933305,-822.4792258124315,-5228.002987717472,2921.024956056581,-1389.7220890519973,-413.9720517802564,449.8512476727249,-353.00513529727306,998.3419302840034,-2639.3108787124497,3391.165740665813,972.7502001751731,3147.07285200485,-4323.607827424546,-756.2023693536488,741.9986913772974,-1645.8745741201417,2122.6595205195176,-2503.22551282356,6078.072255116289,-2362.7624200378573,-1940.1361396530203,1911.436131261689,-2408.442525265145,-1499.755384916378,1991.3309202090966,-2086.8074788984095,-4425.8011744618325,6162.03411005312,-1087.3426826145715,-275.13175809770524,3062.184113236569,-4653.864125316964,1609.5223428636143,-168.41522945340694,4237.014323859675,-701.3194551617166,-607.6947493236186,-1856.5003063560623,1432.6989890311088,-3804.0628042616404,-1188.9778205927798,3579.127939506228,-4836.072664308024,5483.550127635789,3349.5843360244826,-5452.390662326619,1701.8084846160534,909.0609082639487,-3278.229680421505,1972.7281886692963,2497.866737964076,411.8937318261823,-4311.5047290058565,223.310147241565,2633.264555077561,1668.9816493749045,-2130.16434848153,