,0,1,2,3,4,5,6,7,8,9,10,11,12,13,14,15,16,17,18,19,20,21,22,23,24,25,26,27,28,29,30,31,32,33,34,35,36,37,38,39,40,41,42,43,44,45,46,47,48,49,50,51,52,53,54,55,56,57,58,59,60,61,62,63,64,65,66,67,68,69,70,71,72,73,74,75,76,77,78,79,80,81,82,83,84,85,86,87,88,89,90,91,92,93,94,95,96,97,98,99,100,101,102,103,104,105,106,107,108,109,110,111,112,113,114,115,116,117,118,119,120,121,122,123,124,125,126,127,128,129,130,131,132,133,134,135,136,137,138,139,140,141,142,143,144,145,146,147,148,149,150,151,152,153,154,155,156,157,158,159,160,161,162,163,164,165,166,167,168,169,170,171,172,173,174,175,176,177,178,179,180,181,182,183,184,185,186,187,188,189,190,191,192,193,194,195,196,197,198,199,200,201,202,203,204,205,206,207,208,209,210,211,212,213,214,215,216,217,218,219,220,221,222,223,224,225,226,227,228,229,230,231,232,233,234,235,236,237,238,239,240,241,242,243,244,245,246,247,248,249,250,251,252,253,254,255,256,257,258,259,260,261,262,263,264,265,266,267,268,269,270,271,272,273,274,275,276,277,278,279,280,281,282,283,284,285,286,287,288,289,290,291,292,293,294,295,296,297,298,299,300,301,302,303,304,305,306,307,308,309,310,311,312,313,314,315,316,317,318,319,320,321,322,323,324,325,326,327,328,329,330,331,332,333,334,335,336,337,338,339,340,341,342,343,344,345,346,347,348,349,350,351,352,353,354,355,356,357,358,359,360,361,362,363,364,365,366,367,368,369,370,371,372,373,374,375,376,377,378,379,380,381,382,383,384,385,386,387,388,389,390,391,392,393,394,395,396,397,398,399,400,401,402,403,404,405,406,407,408,409,410,411,412,413,414,415,416,417,418,419,420,421,422,423,424,425,426,427,428,429,430,431,432,433,434,435,436,437,438,439,440,441,442,443,444,445,446,447,448,449,450,451,452,453,454,455,456,457,458,459,460,461,462,463,464,465,466,467,468,469,470,471,472,473,474,475,476,477,478,479,480,481,482,483,484,485,486,487,488,489,490,491,492,493,494,495,496,497,498,499,500,501,502,503,504,505,506,507,508,509,510,511,512,513,514,515,516,517,518,519,520,521,522,523,524,525,526,527,528,529,530,531,532,533,534,535,536,537,538,539,540,541,542,543,544,545,546,547,548,549,550,551,552,553,554,555,556,557,558,559,560,561,562,563,564,565,566,567,568,569,570,571,572,573,574,575,576,577,578,579,580,581,582,583,584,585,586,587,588,589,590,591,592,593,594,595,596,597,598,599,600,601,602,603,604,605,606,607,608,609,610,611,612,613,614,615,616,617,618,619,620,621,622,623,624,625,626,627,628,629,630,631,632,633,634,635,636,637,638,639,640,641,642,643,644,645,646,647,648,649,650,651,652,653,654,655,656,657,658,659,660,661,662,663,664,665,666,667,668,669,670,671,672,673,674,675,676,677,678,679,680,681,682,683,684,685,686,687,688,689,690,691,692,693,694,695,696,697,698,699,700,701,702,703,704,705,706,707,708,709,710,711,712,713,714,715,716,717,718,719,720,721,722,723,724,725,726,727,728,729,730,731,732,733,734,735,736,737,738,739,740,741,742,743,744,745,746,747,748,749,750,751,752,753,754,755,756,757,758,759,760,761,762,763,764,765,766,767,768,769,770,771,772,773,774,775,776,777,778,779,780,781,782,783,784,785,786,787,788,789,790,791,792,793,794,795,796,797,798,799,800,801,802,803,804,805,806,807,808,809,810,811,812,813,814,815,816,817,818,819,820,821,822,823,824,825,826,827,828,829,830,831,832,833,834,835,836,837,838,839,840,841,842,843,844,845,846,847,848,849,850,851,852,853,854,855,856,857,858,859,860,861,862,863,864,865,866,867,868,869,870,871,872,873,874,875,876,877,878,879,880,881,882,883,884,885,886,887,888,889,890,891,892,893,894,895,896,897,898,899,900,901,902,903,904,905,906,907,908,909,910,911,912,913,914,915,916,917,918,919,920,921,922,923,924,925,926,927,928,929,930,931,932,933,934,935,936,937,938,939,940,941,942,943,944,945,946,947,948,949,950,951,952,953,954,955,956,957,958,959,960,961,962,963,964,965,966,967,968,969,970,971,972,973,974,975,976,977,978,979,980,981,982,983,984,985,986,987,988,989,990,991,992,993,994,995,996,997,998,999,1000,1001,1002,1003,1004,1005,1006,1007,1008,1009,1010,1011,1012,1013,1014,1015,1016,1017,1018,1019,1020,1021,1022,1023,1024,1025,1026,1027,1028,1029,1030,1031,1032,1033,1034,1035,1036,1037,1038,1039,1040,1041,1042,1043,1044,1045,1046,1047,1048,1049,1050,1051,1052,1053,1054,1055,1056,1057,1058,1059,1060,1061,1062,1063,1064,1065,1066,1067,1068,1069,1070,1071,1072,1073,1074,1075,1076,1077,1078,1079,1080,1081,1082,1083,1084,1085,1086,1087,1088,1089,1090,1091,1092,1093,1094,1095,1096,1097,1098,1099,1100,1101,1102,1103,1104,1105,1106,1107,1108,1109,1110,1111,1112,1113,1114,1115,1116,1117,1118,1119,1120,1121,1122,1123,1124,1125,1126,1127,1128,1129,1130,1131,1132,1133,1134,1135,1136,1137,1138,1139,1140,1141,1142,1143,1144,1145,1146,1147,1148,1149,1150,1151,1152,1153,1154,1155,1156,1157,1158,1159,1160,1161,1162,1163,1164,1165,1166,1167,1168,1169,1170,1171,1172,1173,1174,1175,1176,1177,1178,1179,1180,1181,1182,1183,1184,1185,1186,1187,1188,1189,1190,1191,1192,1193,1194,1195,1196,1197,1198,1199,1200,1201,1202,1203,1204,1205,1206,1207,1208,1209,1210,1211,1212,1213,1214,1215,1216,1217,1218,1219,1220,1221,1222,1223,1224,1225,1226,1227,1228,1229,1230,1231,1232,1233,1234,1235,1236,1237,1238,1239,1240,1241,1242,1243,1244,1245,1246,1247,1248,1249,1250,1251,1252,1253,1254,1255,1256,1257,1258,1259,1260,1261,1262,1263,1264,1265,1266,1267,1268,1269,1270,1271,1272,1273,1274,1275,1276,1277,1278,1279,1280,1281,1282,1283,1284,1285,1286,1287,1288,1289,1290,1291,1292,1293,1294,1295,1296,1297,1298,1299,1300,1301,1302,1303,1304,1305,1306,1307,1308,1309,1310,1311,1312,1313,1314,1315,1316,1317,1318,1319,1320,1321,1322,1323,1324,1325,1326,1327,1328,1329,1330,1331,1332,1333,1334,1335,1336,1337,1338,1339,1340,1341,1342,1343,1344,1345,1346,1347,1348,1349,1350,1351,1352,1353,1354,1355,1356,1357,1358,1359,1360,1361,1362,1363,1364,1365,1366,1367,1368,1369,1370,1371,1372,1373,1374,1375,1376,1377,1378,1379,1380,1381,1382,1383,1384,1385,1386,1387,1388,1389,1390,1391,1392,1393,1394,1395,1396,1397,1398,1399,1400,1401,1402,1403,1404,1405,1406,1407,1408,1409,1410,1411,1412,1413,1414,1415,1416,1417,1418,1419,1420,1421,1422,1423,1424,1425,1426,1427,1428,1429,1430,1431,1432,1433,1434,1435,1436,1437,1438,1439,1440,1441,1442,1443,1444,1445,1446,1447,1448,1449,1450,1451,1452,1453,1454,1455,1456,1457,1458,1459,1460,1461,1462,1463,1464,1465,1466,1467,1468,1469,1470,1471,1472,1473,1474,1475,1476,1477,1478,1479,1480,1481,1482,1483,1484,1485,1486,1487,1488,1489,1490,1491,1492,1493,1494,1495,1496,1497,1498,1499,1500,1501,1502,1503,1504,1505,1506,1507,1508,1509,1510,1511,1512,1513,1514,1515,1516,1517,1518,1519,1520,1521,1522,1523,1524,1525,1526,1527,1528,1529,1530,1531,1532,1533,1534,1535,1536,1537,1538,1539,1540,1541,1542,1543,1544,1545,1546,1547,1548,1549,1550,1551,1552,1553,1554,1555,1556,1557,1558,1559,1560,1561,1562,1563,1564,1565,1566,1567,1568,1569,1570,1571,1572,1573,1574,1575,1576,1577,1578,1579,1580,1581,1582,1583,1584,1585,1586,1587,1588,1589,1590,1591,1592,1593,1594,1595,1596,1597,1598,1599,1600,1601,1602,1603,1604,1605,1606,1607,1608,1609,1610,1611,1612,1613,1614,1615,1616,1617,1618,1619,1620,1621,1622,1623,1624,1625,1626,1627,1628,1629,1630,1631,1632,1633,1634,1635,1636,1637,1638,1639,1640,1641,1642,1643,1644,1645,1646,1647,1648,1649,1650,1651,1652,1653,1654,1655,1656,1657,1658,1659,1660,1661,1662,1663,1664,1665,1666,1667,1668,1669,1670,1671,1672,1673,1674,1675,1676,1677,1678,1679,1680,1681,1682,1683,1684,1685,1686,1687,1688,1689,1690,1691,1692,1693,1694,1695,1696,1697,1698,1699,1700,1701,1702,1703,1704,1705,1706,1707,1708,1709,1710,1711,1712,1713,1714,1715,1716,1717,1718,1719,1720,1721,1722,1723,1724,1725,1726,1727,1728,1729,1730,1731,1732,1733,1734,1735,1736,1737,1738,1739,1740,1741,1742,1743,1744,1745,1746,1747,1748,1749,1750,1751,1752,1753,1754,1755,1756,1757,1758,1759,1760,1761,1762,1763,1764,1765,1766,1767,1768,1769,1770,1771,1772,1773,1774,1775,1776,1777,1778,1779,1780,1781,1782,1783,1784,1785,1786,1787,1788,1789,1790,1791,1792,1793,1794,1795,1796,1797,1798,1799,1800,1801,1802,1803,1804,1805,1806,1807,1808,1809,1810,1811,1812,1813,1814,1815,1816,1817,1818,1819,1820,1821,1822,1823,1824,1825,1826,1827,1828,1829,1830,1831,1832,1833,1834,1835,1836,1837,1838,1839,1840,1841,1842,1843,1844,1845,1846,1847,1848,1849,1850,1851,1852,1853,1854,1855,1856,1857,1858,1859,1860,1861,1862,1863,1864,1865,1866,1867,1868,1869,1870,1871,1872,1873,1874,1875,1876,1877,1878,1879,1880,1881,1882,1883,1884,1885,1886,1887,1888,1889,1890,1891,1892,1893,1894,1895,1896,1897,1898,1899,1900,1901,1902,1903,1904,1905,1906,1907,1908,1909,1910,1911,1912,1913,1914,1915,1916,1917,1918,1919,1920,1921,1922,1923,1924,1925,1926,1927,1928,1929,1930,1931,1932,1933,1934,1935,1936,1937,1938,1939,1940,1941,1942,1943,1944,1945,1946,1947,1948,1949,1950,1951,1952,1953,1954,1955,1956,1957,1958,1959,1960,1961,1962,1963,1964,1965,1966,1967,1968,1969,1970,1971,1972,1973,1974,1975,1976,1977,1978,1979,1980,1981,1982,1983,1984,1985,1986,1987,1988,1989,1990,1991,1992,1993,1994,1995,1996,1997,1998,1999,2000,2001,2002,2003,2004,2005,2006,2007,2008,2009,2010,2011,2012,2013,2014,2015,2016,2017,2018,2019,2020,2021,2022,2023,2024,2025,2026,2027,2028,2029,2030,2031,2032,2033,2034,2035,2036,2037,2038,2039,2040,2041,2042,2043,2044,2045,2046,2047,2048,2049,2050,2051,2052,2053,2054,2055,2056,2057,2058,2059,2060,2061,2062,2063,2064,2065,2066,2067,2068,2069,2070,2071,2072,2073,2074,2075,2076,2077,2078,2079,2080,2081,2082,2083,2084,2085,2086,2087,2088,2089,2090,2091,2092,2093,2094,2095,2096,2097,2098,2099,2100,2101,2102,2103,2104,2105,2106,2107,2108,2109,2110,2111,2112,2113,2114,2115,2116,2117,2118,2119,2120,2121,2122,2123,2124,2125,2126,2127,2128,2129,2130,2131,2132,2133,2134,2135,2136,2137,2138,2139,2140,2141,2142,2143,2144,2145,2146,2147,2148,2149,2150,2151,2152,2153,2154,2155,2156,2157,2158,2159,2160,2161,2162,2163,2164,2165,2166,2167,2168,2169,2170,2171,2172,2173,2174,2175,2176,2177,2178,2179,2180,2181,2182,2183,2184,2185,2186,2187,2188,2189,2190,2191,2192,2193,2194,2195,2196,2197,2198,2199,2200,2201,2202,2203,2204,2205,2206,2207,2208,2209,2210,2211,2212,2213,2214,2215,2216,2217,2218,2219,2220,2221,2222,2223,2224,2225,2226,2227,2228,2229,2230,2231,2232,2233,2234,2235,2236,2237,2238,2239,2240,2241,2242,2243,2244,2245,2246,2247,2248,2249,2250,2251,2252,2253,2254,2255,2256,2257,2258,2259,2260,2261,2262,2263,2264,2265,2266,2267,2268,2269,2270,2271,2272,2273,2274,2275,2276,2277,2278,2279,2280,2281,2282,2283,2284,2285,2286,2287,2288,2289,2290,2291,2292,2293,2294,2295,2296,2297,2298,2299,2300,2301,2302,2303,2304,2305,2306,2307,2308,2309,2310,2311,2312,2313,2314,2315,2316,2317,2318,2319,2320,2321,2322,2323,2324,2325,2326,2327,2328,2329,2330,2331,2332,2333,2334,2335,2336,2337,2338,2339,2340,2341,2342,2343,2344,2345,2346,2347,2348,2349,2350,2351,2352,2353,2354,2355,2356,2357,2358,2359,2360,2361,2362,2363,2364,2365,2366,2367,2368,2369,2370,2371,2372,2373,2374,2375,2376,2377,2378,2379,2380,2381,2382,2383,2384,2385,2386,2387,2388,2389,2390,2391,2392,2393,2394,2395,2396,2397,2398,2399,2400,2401,2402,2403,2404,2405,2406,2407,2408,2409,2410,2411,2412,2413,2414,2415,2416,2417,2418,2419,2420,2421,2422,2423,2424,2425,2426,2427,2428,2429,2430,2431,2432,2433,2434,2435,2436,2437,2438,2439,2440,2441,2442,2443,2444,2445,2446,2447,2448,2449,2450,2451,2452,2453,2454,2455,2456,2457,2458,2459,2460,2461,2462,2463,2464,2465,2466,2467,2468,2469,2470,2471,2472,2473,2474,2475,2476,2477,2478,2479,2480,2481,2482,2483,2484,2485,2486,2487,2488,2489,2490,2491,2492,2493,2494,2495,2496,2497,2498,2499,2500,2501,2502,2503,2504,2505,2506,2507,2508,2509,2510,2511,2512,2513,2514,2515,2516,2517,2518,2519,2520,2521,2522,2523,2524,2525,2526,2527,2528,2529,2530,2531,2532,2533,2534,2535,2536,2537,2538,2539,2540,2541,2542,2543,2544,2545,2546,2547,2548,2549,2550,2551,2552,2553,2554,2555,2556,2557,2558,2559,2560,2561,2562,2563,2564,2565,2566,2567,2568,2569,2570,2571,2572,2573,2574,2575,2576,2577,2578,2579,2580,2581,2582,2583,2584,2585,2586,2587,2588,2589,2590,2591,2592,2593,2594,2595,2596,2597,2598,2599,2600,2601,2602,2603,2604,2605,2606,2607,2608,2609,2610,2611,2612,2613,2614,2615,2616,2617,2618,2619,2620,2621,2622,2623,2624,2625,2626,2627,2628,2629,2630,2631,2632,2633,2634,2635,2636,2637,2638,2639,2640,2641,2642,2643,2644,2645,2646,2647,2648,2649,2650,2651,2652,2653,2654,2655,2656,2657,2658,2659,2660,2661,2662,2663,2664,2665,2666,2667,2668,2669,2670,2671,2672,2673,2674,2675,2676,2677,2678,2679,2680,2681,2682,2683,2684,2685,2686,2687,2688,2689,2690,2691,2692,2693,2694,2695,2696,2697,2698,2699,2700,2701,2702,2703,2704,2705,2706,2707,2708,2709,2710,2711,2712,2713,2714,2715,2716,2717,2718,2719,2720,2721,2722,2723,2724,2725,2726,2727,2728,2729,2730,2731,2732,2733,2734,2735,2736,2737,2738,2739,2740,2741,2742,2743,2744,2745,2746,2747,2748,2749,2750,2751,2752,2753,2754,2755,2756,2757,2758,2759,2760,2761,2762,2763,2764,2765,2766,2767,2768,2769,2770,2771,2772,2773,2774,2775,2776,2777,2778,2779,2780,2781,2782,2783,2784,2785,2786,2787,2788,2789,2790,2791,2792,2793,2794,2795,2796,2797,2798,2799,2800,2801,2802,2803,2804,2805,2806,2807,2808,2809,2810,2811,2812,2813,2814,2815,2816,2817,2818,2819,2820,2821,2822,2823,2824,2825,2826,2827,2828,2829,2830,2831,2832,2833,2834,2835,2836,2837,2838,2839,2840,2841,2842,2843,2844,2845,2846,2847,2848,2849,2850,2851,2852,2853,2854,2855,2856,2857,2858,2859,2860,2861,2862,2863,2864,2865,2866,2867,2868,2869,2870,2871,2872,2873,2874,2875,2876,2877,2878,2879,2880,2881,2882,2883,2884,2885,2886,2887,2888,2889,2890,2891,2892,2893,2894,2895,2896,2897,2898,2899,2900,2901,2902,2903,2904,2905,2906,2907,2908,2909,2910,2911,2912,2913,2914,2915,2916,2917,2918,2919,2920,2921,2922,2923,2924,2925,2926,2927,2928,2929,2930,2931,2932,2933,2934,2935,2936,2937,2938,2939,2940,2941,2942,2943,2944,2945,2946,2947,2948,2949,2950,2951,2952,2953,2954,2955,2956,2957,2958,2959,2960,2961,2962,2963,2964,2965,2966,2967,2968,2969,2970,2971,2972,2973,2974,2975,2976,2977,2978,2979,2980,2981,2982,2983,2984,2985,2986,2987,2988,2989,2990,2991,2992,2993,2994,2995,2996,2997,2998,2999,3000,3001,3002,3003,3004,3005,3006,3007,3008,3009,3010,3011,3012,3013,3014,3015,3016,3017,3018,3019,3020,3021,3022,3023,3024,3025,3026,3027,3028,3029,3030,3031,3032,3033,3034,3035,3036,3037,3038,3039,3040,3041,3042,3043,3044,3045,3046,3047,3048,3049,3050,3051,3052,3053,3054,3055,3056,3057,3058,3059,3060,3061,3062,3063,3064,3065,3066,3067,3068,3069,3070,3071,3072,3073,3074,3075,3076,3077,3078,3079,3080,3081,3082,3083,3084,3085,3086,3087,3088,3089,3090,3091,3092,3093,3094,3095,3096,3097,3098,3099,3100,3101,3102,3103,3104,3105,3106,3107,3108,3109,3110,3111,3112,3113,3114,3115,3116,3117,3118,3119,3120,3121,3122,3123,3124,3125,3126,3127,3128,3129,3130,3131,3132,3133,3134,3135,3136,3137,3138,3139,3140,3141,3142,3143,3144,3145,3146,3147,3148,3149,3150,3151,3152,3153,3154,3155,3156,3157,3158,3159,3160,3161,3162,3163,3164,3165,3166,3167,3168,3169,3170,3171,3172,3173,3174,3175,3176,3177,3178,3179,3180,3181,3182,3183,3184,3185,3186,3187,3188,3189,3190,3191,3192,3193,3194,3195,3196,3197,3198,3199,3200,3201,3202,3203,3204,3205,3206,3207,3208,3209,3210,3211,3212,3213,3214,3215,3216,3217,3218,3219,3220,3221,3222,3223,3224,3225,3226,3227,3228,3229,3230,3231,3232,3233,3234,3235,3236,3237,3238,3239,3240,3241,3242,3243,3244,3245,3246,3247,3248,3249,3250,3251,3252,3253,3254,3255,3256,3257,3258,3259,3260,3261,3262,3263,3264,3265,3266,3267,3268,3269,3270,3271,3272,3273,3274,3275,3276,3277,3278,3279,3280,3281,3282,3283,3284,3285,3286,3287,3288,3289,3290,3291,3292,3293,3294,3295,3296,3297,3298,3299,3300,3301,3302,3303,3304,3305,3306,3307,3308,3309,3310,3311,3312,3313,3314,3315,3316,3317,3318,3319,3320,3321,3322,3323,3324,3325,3326,3327,3328,3329,3330,3331,3332,3333,3334,3335,3336,3337,3338,3339,3340,3341,3342,3343,3344,3345,3346,3347,3348,3349,3350,3351,3352,3353,3354,3355,3356,3357,3358,3359,3360,3361,3362,3363,3364,3365,3366,3367,3368,3369,3370,3371,3372,3373,3374,3375,3376,3377,3378,3379,3380,3381,3382,3383,3384,3385,3386,3387,3388,3389,3390,3391,3392,3393,3394,3395,3396,3397,3398,3399,3400,3401,3402,3403,3404,3405,3406,3407,3408,3409,3410,3411,3412,3413,3414,3415,3416,3417,3418,3419,3420,3421,3422,3423,3424,3425,3426,3427,3428,3429,3430,3431,3432,3433,3434,3435,3436,3437,3438,3439,3440,3441,3442,3443,3444,3445,3446,3447,3448,3449,3450,3451,3452,3453,3454,3455,3456,3457,3458,3459,3460,3461,3462,3463,3464,3465,3466,3467,3468,3469,3470,3471,3472,3473,3474,3475,3476,3477,3478,3479,3480,3481,3482,3483,3484,3485,3486,3487,3488,3489,3490,3491,3492,3493,3494,3495,3496,3497,3498,3499,3500,3501,3502,3503,3504,3505,3506,3507,3508,3509,3510,3511,3512,3513,3514,3515,3516,3517,3518,3519,3520,3521,3522,3523,3524,3525,3526,3527,3528,3529,3530,3531,3532,3533,3534,3535,3536,3537,3538,3539,3540,3541,3542,3543,3544,3545,3546,3547,3548,3549,3550,3551,3552,3553,3554,3555,3556,3557,3558,3559,3560,3561,3562,3563,3564,3565,3566,3567,3568,3569,3570,3571,3572,3573,3574,3575,3576,3577,3578,3579,3580,3581,3582,3583,3584,3585,3586,3587,3588,3589,3590,3591,3592,3593,3594,3595,3596,3597,3598,3599,3600,3601,3602,3603,3604,3605,3606,3607,3608,3609,3610,3611,3612,3613,3614,3615,3616,3617,3618,3619,3620,3621,3622,3623,3624,3625,3626,3627,3628,3629,3630,3631,3632,3633,3634,3635,3636,3637,3638,3639,3640,3641,3642,3643,3644,3645,3646,3647,3648,3649,3650,3651,3652,3653,3654,3655,3656,3657,3658,3659,3660,3661,3662,3663,3664,3665,3666,3667,3668,3669,3670,3671,3672,3673,3674,3675,3676,3677,3678,3679,3680,3681,3682,3683,3684,3685,3686,3687,3688,3689,3690,3691,3692,3693,3694,3695,3696,3697,3698,3699,3700,3701,3702,3703,3704,3705,3706,3707,3708,3709,3710,3711,3712,3713,3714,3715,3716,3717,3718,3719,3720,3721,3722,3723,3724,3725,3726,3727,3728,3729,3730,3731,3732,3733,3734,3735,3736,3737,3738,3739,3740,3741,3742,3743,3744,3745,3746,3747,3748,3749,3750,3751,3752,3753,3754,3755,3756,3757,3758,3759,3760,3761,3762,3763,3764,3765,3766,3767,3768,3769,3770,3771,3772,3773,3774,3775,3776,3777,3778,3779,3780,3781,3782,3783,3784,3785,3786,3787,3788,3789,3790,3791,3792,3793,3794,3795,3796,3797,3798,3799,3800,3801,3802,3803,3804,3805,3806,3807,3808,3809,3810,3811,3812,3813,3814,3815,3816,3817,3818,3819,3820,3821,3822,3823,3824,3825,3826,3827,3828,3829,3830,3831,3832,3833,3834,3835,3836,3837,3838,3839,3840,3841,3842,3843,3844,3845,3846,3847,3848,3849,3850,3851,3852,3853,3854,3855,3856,3857,3858,3859,3860,3861,3862,3863,3864,3865,3866,3867,3868,3869,3870,3871,3872,3873,3874,3875,3876,3877,3878,3879,3880,3881,3882,3883,3884,3885,3886,3887,3888,3889,3890,3891,3892,3893,3894,3895,3896,3897,3898,3899,3900,3901,3902,3903,3904,3905,3906,3907,3908,3909,3910,3911,3912,3913,3914,3915,3916,3917,3918,3919,3920,3921,3922,3923,3924,3925,3926,3927,3928,3929,3930,3931,3932,3933,3934,3935,3936,3937,3938,3939,3940,3941,3942,3943,3944,3945,3946,3947,3948,3949,3950,3951,3952,3953,3954,3955,3956,3957,3958,3959,3960,3961,3962,3963,3964,3965,3966,3967,3968,3969,3970,3971,3972,3973,3974,3975,3976,3977,3978,3979,3980,3981,3982,3983,3984,3985,3986,3987,3988,3989,3990,3991,3992,3993,3994,3995,3996,3997,3998,3999,4000,4001,4002,4003,4004,4005,4006,4007,4008,4009,4010,4011,4012,4013,4014,4015,4016,4017,4018,4019,4020,4021,4022,4023,4024,4025,4026,4027,4028,4029,4030,4031,4032,4033,4034,4035,4036,4037,4038,4039,4040,4041,4042,4043,4044,4045,4046,4047,4048,4049,4050,4051,4052,4053,4054,4055,4056,4057,4058,4059,4060,4061,4062,4063,4064,4065,4066,4067,4068,4069,4070,4071,4072,4073,4074,4075,4076,4077,4078,4079,4080,4081,4082,4083,4084,4085,4086,4087,4088,4089,4090,4091,4092,4093,4094,4095,4096,4097,4098,4099,4100,4101,4102,4103,4104,4105,4106,4107,4108,4109,4110,4111,4112,4113,4114,4115,4116,4117,4118,4119,4120,4121,4122,4123,4124,4125,4126,4127,4128,4129,4130,4131,4132,4133,4134,4135,4136,4137,4138,4139,4140,4141,4142,4143,4144,4145,4146,4147,4148,4149,4150,4151,4152,4153,4154,4155,4156,4157,4158,4159,4160,4161,4162,4163,4164,4165,4166,4167,4168,4169,4170,4171,4172,4173,4174,4175,4176,4177,4178,4179,4180,4181,4182,4183,4184,4185,4186,4187,4188,4189,4190,4191,4192,4193,4194,4195,4196,4197,4198,4199,4200,4201,4202,4203,4204,4205,4206,4207,4208,4209,4210,4211,4212,4213,4214,4215,4216,4217,4218,4219,4220,4221,4222,4223,4224,4225,4226,4227,4228,4229,4230,4231,4232,4233,4234,4235,4236,4237,4238,4239,4240,4241,4242,4243,4244,4245,4246,4247,4248,4249,4250,4251,4252,4253,4254,4255,4256,4257,4258,4259,4260,4261,4262,4263,4264,4265,4266,4267,4268,4269,4270,4271,4272,4273,4274,4275,4276,4277,4278,4279,4280,4281,4282,4283,4284,4285,4286,4287,4288,4289,4290,4291,4292,4293,4294,4295,4296,4297,4298,4299,4300,4301,4302,4303,4304,4305,4306,4307,4308,4309,4310,4311,4312,4313,4314,4315,4316,4317,4318,4319,4320,4321,4322,4323,4324,4325,4326,4327,4328,4329,4330,4331,4332,4333,4334,4335,4336,4337,4338,4339,4340,4341,4342,4343,4344,4345,4346,4347,4348,4349,4350,4351,4352,4353,4354,4355,4356,4357,4358,4359,4360,4361,4362,4363,4364,4365,4366,4367,4368,4369,4370,4371,4372,4373,4374,4375,4376,4377,4378,4379,4380,4381,4382,4383,4384,4385,4386,4387,4388,4389,4390,4391,4392,4393,4394,4395,4396,4397,4398,4399,4400,4401,4402,4403,4404,4405,4406,4407,4408,4409,4410,4411,4412,4413,4414,4415,4416,4417,4418,4419,4420,4421,4422,4423,4424,4425,4426,4427,4428,4429,4430,4431,4432,4433,4434,4435,4436,4437,4438,4439,4440,4441,4442,4443,4444,4445,4446,4447,4448,4449,4450,4451,4452,4453,4454,4455,4456,4457,4458,4459,4460,4461,4462,4463,4464,4465,4466,4467,4468,4469,4470,4471,4472,4473,4474,4475,4476,4477,4478,4479,4480,4481,4482,4483,4484,4485,4486,4487,4488,4489,4490,4491,4492,4493,4494,4495,4496,4497,4498,4499,4500,4501,4502,4503,4504,4505,4506,4507,4508,4509,4510,4511,4512,4513,4514,4515,4516,4517,4518,4519,4520,4521,4522,4523,4524,4525,4526,4527,4528,4529,4530,4531,4532,4533,4534,4535,4536,4537,4538,4539,4540,4541,4542,4543,4544,4545,4546,4547,4548,4549,4550,4551,4552,4553,4554,4555,4556,4557,4558,4559,4560,4561,4562,4563,4564,4565,4566,4567,4568,4569,4570,4571,4572,4573,4574,4575,4576,4577,4578,4579,4580,4581,4582,4583,4584,4585,4586,4587,4588,4589,4590,4591,4592,4593,4594,4595,4596,4597,4598,4599,4600,4601,4602,4603,4604,4605,4606,4607,4608,4609,4610,4611,4612,4613,4614,4615,4616,4617,4618,4619,4620,4621,4622,4623,4624,4625,4626,4627,4628,4629,4630,4631,4632,4633,4634,4635,4636,4637,4638,4639,4640,4641,4642,4643,4644,4645,4646,4647,4648,4649,4650,4651,4652,4653,4654,4655,4656,4657,4658,4659,4660,4661,4662,4663,4664,4665,4666,4667,4668,4669,4670,4671,4672,4673,4674,4675,4676,4677,4678,4679,4680,4681,4682,4683,4684,4685,4686,4687,4688,4689,4690,4691,4692,4693,4694,4695,4696,4697,4698,4699,4700,4701,4702,4703,4704,4705,4706,4707,4708,4709,4710,4711,4712,4713,4714,4715,4716,4717,4718,4719,4720,4721,4722,4723,4724,4725,4726,4727,4728,4729,4730,4731,4732,4733,4734,4735,4736,4737,4738,4739,4740,4741,4742,4743,4744,4745,4746,4747,4748,4749,4750,4751,4752,4753,4754,4755,4756,4757,4758,4759,4760,4761,4762,4763,4764,4765,4766,4767,4768,4769,4770,4771,4772,4773,4774,4775,4776,4777,4778,4779,4780,4781,4782,4783,4784,4785,4786,4787,4788,4789,4790,4791,4792,4793,4794,4795,4796,4797,4798,4799,4800,4801,4802,4803,4804,4805,4806,4807,4808,4809,4810,4811,4812,4813,4814,4815,4816,4817,4818,4819,4820,4821,4822,4823,4824,4825,4826,4827,4828,4829,4830,4831,4832,4833,4834,4835,4836,4837,4838,4839,4840,4841,4842,4843,4844,4845,4846,4847,4848,4849,4850,4851,4852,4853,4854,4855,4856,4857,4858,4859,4860,4861,4862,4863,4864,4865,4866,4867,4868,4869,4870,4871,4872,4873,4874,4875,4876,4877,4878,4879,4880,4881,4882,4883,4884,4885,4886,4887,4888,4889,4890,4891,4892,4893,4894,4895,4896,4897,4898,4899,4900,4901,4902,4903,4904,4905,4906,4907,4908,4909,4910,4911,4912,4913,4914,4915,4916,4917,4918,4919,4920,4921,4922,4923,4924,4925,4926,4927,4928,4929,4930,4931,4932,4933,4934,4935,4936,4937,4938,4939,4940,4941,4942,4943,4944,4945,4946,4947,4948,4949,4950,4951,4952,4953,4954,4955,4956,4957,4958,4959,4960,4961,4962,4963,4964,4965,4966,4967,4968,4969,4970,4971,4972,4973,4974,4975,4976,4977,4978,4979,4980,4981,4982,4983,4984,4985,4986,4987,4988,4989,4990,4991,4992,4993,4994,4995,4996,4997,4998,4999,5000,5001,5002,5003,5004,5005,5006,5007,5008,5009,5010,5011,5012,5013,5014,5015,5016,5017,5018,5019,5020,5021,5022,5023,5024,5025,5026,5027,5028,5029,5030,5031,5032,5033,5034,5035,5036,5037,5038,5039,5040,5041,5042,5043,5044,5045,5046,5047,5048,5049,5050,5051,5052,5053,5054,5055,5056,5057,5058,5059,5060,5061,5062,5063,5064,5065,5066,5067,5068,5069,5070,5071,5072,5073,5074,5075,5076,5077,5078,5079,5080,5081,5082,5083,5084,5085,5086,5087,5088,5089,5090,5091,5092,5093,5094,5095,5096,5097,5098,5099,5100,5101,5102,5103,5104,5105,5106,5107,5108,5109,5110,5111,5112,5113,5114,5115,5116,5117,5118,5119,5120,5121,5122,5123,5124,5125,5126,5127,5128,5129,5130,5131,5132,5133,5134,5135,5136,5137,5138,5139,5140,5141,5142,5143,5144,5145,5146,5147,5148,5149,5150,5151,5152,5153,5154,5155,5156,5157,5158,5159,5160,5161,5162,5163,5164,5165,5166,5167,5168,5169,5170,5171,5172,5173,5174,5175,5176,5177,5178,5179,5180,5181,5182,5183,5184,5185,5186,5187,5188,5189,5190,5191,5192,5193,5194,5195,5196,5197,5198,5199,5200,5201,5202,5203,5204,5205,5206,5207,5208,5209,5210,5211,5212,5213,5214,5215,5216,5217,5218,5219,5220,5221,5222,5223,5224,5225,5226,5227,5228,5229,5230,5231,5232,5233,5234,5235,5236,5237,5238,5239,5240,5241,5242,5243,5244,5245,5246,5247,5248,5249,5250,5251,5252,5253,5254,5255,5256,5257,5258,5259,5260,5261,5262,5263,5264,5265,5266,5267,5268,5269,5270,5271,5272,5273,5274,5275,5276,5277,5278,5279,5280,5281,5282,5283,5284,5285,5286,5287,5288,5289,5290,5291,5292,5293,5294,5295,5296,5297,5298,5299,5300,5301,5302,5303,5304,5305,5306,5307,5308,5309,5310,5311,5312,5313,5314,5315,5316,5317,5318,5319,5320,5321,5322,5323,5324,5325,5326,5327,5328,5329,5330,5331,5332,5333,5334,5335,5336,5337,5338,5339,5340,5341,5342,5343,5344,5345,5346,5347,5348,5349,5350,5351,5352,5353,5354,5355,5356,5357,5358,5359,5360,5361,5362,5363,5364,5365,5366,5367,5368,5369,5370,5371,5372,5373,5374,5375,5376,5377,5378,5379,5380,5381,5382,5383,5384,5385,5386,5387,5388,5389,5390,5391,5392,5393,5394,5395,5396,5397,5398,5399,5400,5401,5402,5403,5404,5405,5406,5407,5408,5409,5410,5411,5412,5413,5414,5415,5416,5417,5418,5419,5420,5421,5422,5423,5424,5425,5426,5427,5428,5429,5430,5431,5432,5433,5434,5435,5436,5437,5438,5439,5440,5441,5442,5443,5444,5445,5446,5447,5448,5449,5450,5451,5452,5453,5454,5455,5456,5457,5458,5459,5460,5461,5462,5463,5464,5465,5466,5467,5468,5469,5470,5471,5472,5473,5474,5475,5476,5477,5478,5479,5480,5481,5482,5483,5484,5485,5486,5487,5488,5489,5490,5491,5492,5493,5494,5495,5496,5497,5498,5499,5500,5501,5502,5503,5504,5505,5506,5507,5508,5509,5510,5511,5512,5513,5514,5515,5516,5517,5518,5519,5520,5521,5522,5523,5524,5525,5526,5527,5528,5529,5530,5531,5532,5533,5534,5535,5536,5537,5538,5539,5540,5541,5542,5543,5544,5545,5546,5547,5548,5549,5550,5551,5552,5553,5554,5555,5556,5557,5558,5559,5560,5561,5562,5563,5564,5565,5566,5567,5568,5569,5570,5571,5572,5573,5574,5575,5576,5577,5578,5579,5580,5581,5582,5583,5584,5585,5586,5587,5588,5589,5590,5591,5592,5593,5594,5595,5596,5597,5598,5599,5600,5601,5602,5603,5604,5605,5606,5607,5608,5609,5610,5611,5612,5613,5614,5615,5616,5617,5618,5619,5620,5621,5622,5623,5624,5625,5626,5627,5628,5629,5630,5631,5632,5633,5634,5635,5636,5637,5638,5639,5640,5641,5642,5643,5644,5645,5646,5647,5648,5649,5650,5651,5652,5653,5654,5655,5656,5657,5658,5659,5660,5661,5662,5663,5664,5665,5666,5667,5668,5669,5670,5671,5672,5673,5674,5675,5676,5677,5678,5679,5680,5681,5682,5683,5684,5685,5686,5687,5688,5689,5690,5691,5692,5693,5694,5695,5696,5697,5698,5699,5700,5701,5702,5703,5704,5705,5706,5707,5708,5709,5710,5711,5712,5713,5714,5715,5716,5717,5718,5719,5720,5721,5722,5723,5724,5725,5726,5727,5728,5729,5730,5731,5732,5733,5734,5735,5736,5737,5738,5739,5740,5741,5742,5743,5744,5745,5746,5747,5748,5749,5750,5751,5752,5753,5754,5755,5756,5757,5758,5759,5760,5761,5762,5763,5764,5765,5766,5767,5768,5769,5770,5771,5772,5773,5774,5775,5776,5777,5778,5779,5780,5781,5782,5783,5784,5785,5786,5787,5788,5789,5790,5791,5792,5793,5794,5795,5796,5797,5798,5799,5800,5801,5802,5803,5804,5805,5806,5807,5808,5809,5810,5811,5812,5813,5814,5815,5816,5817,5818,5819,5820,5821,5822,5823,5824,5825,5826,5827,5828,5829,5830,5831,5832,5833,5834,5835,5836,5837,5838,5839,5840,5841,5842,5843,5844,5845,5846,5847,5848,5849,5850,5851,5852,5853,5854,5855,5856,5857,5858,5859,5860,5861,5862,5863,5864,5865,5866,5867,5868,5869,5870,5871,5872,5873,5874,5875,5876,5877,5878,5879,5880,5881,5882,5883,5884,5885,5886,5887,5888,5889,5890,5891,5892,5893,5894,5895,5896,5897,5898,5899,5900,5901,5902,5903,5904,5905,5906,5907,5908,5909,5910,5911,5912,5913,5914,5915,5916,5917,5918,5919,5920,5921,5922,5923,5924,5925,5926,5927,5928,5929,5930,5931,5932,5933,5934,5935,5936,5937,5938,5939,5940,5941,5942,5943,5944,5945,5946,5947,5948,5949,5950,5951,5952,5953,5954,5955,5956,5957,5958,5959,5960,5961,5962,5963,5964,5965,5966,5967,5968,5969,5970,5971,5972,5973,5974,5975,5976,5977,5978,5979,5980,5981,5982,5983,5984,5985,5986,5987,5988,5989,5990,5991,5992,5993,5994,5995,5996,5997,5998,5999,6000,6001,6002,6003,6004,6005,6006,6007,6008,6009,6010,6011,6012,6013,6014,6015,6016,6017,6018,6019,6020,6021,6022,6023,6024,6025,6026,6027,6028,6029,6030,6031,6032,6033,6034,6035,6036,6037,6038,6039,6040,6041,6042,6043,6044,6045,6046,6047,6048,6049,6050,6051,6052,6053,6054,6055,6056,6057,6058,6059,6060,6061,6062,6063,6064,6065,6066,6067,6068,6069,6070,6071,6072,6073,6074,6075,6076,6077,6078,6079,6080,6081,6082,6083,6084,6085,6086,6087,6088,6089,6090,6091,6092,6093,6094,6095,6096,6097,6098,6099,6100,6101,6102,6103,6104,6105,6106,6107,6108,6109,6110,6111,6112,6113,6114,6115,6116,6117,6118,6119,6120,6121,6122,6123,6124,6125,6126,6127,6128,6129,6130,6131,6132,6133,6134,6135,6136,6137,6138,6139,6140,6141,6142,6143,6144,6145,6146,6147,6148,6149,6150,6151,6152,6153,6154,6155,6156,6157,6158,6159,6160,6161,6162,6163,6164,6165,6166,6167,6168,6169,6170,6171,6172,6173,6174,6175,6176,6177,6178,6179,6180,6181,6182,6183,6184,6185,6186,6187,6188,6189,6190,6191,6192,6193,6194,6195,6196,6197,6198,6199,6200,6201,6202,6203,6204,6205,6206,6207,6208,6209,6210,6211,6212,6213,6214,6215,6216,6217,6218,6219,6220,6221,6222,6223,6224,6225,6226,6227,6228,6229,6230,6231,6232,6233,6234,6235,6236,6237,6238,6239,6240,6241,6242,6243,6244,6245,6246,6247,6248,6249,6250,6251,6252,6253,6254,6255,6256,6257,6258,6259,6260,6261,6262,6263,6264,6265,6266,6267,6268,6269,6270,6271,6272,6273,6274,6275,6276,6277,6278,6279,6280,6281,6282,6283,6284,6285,6286,6287,6288,6289,6290,6291,6292,6293,6294,6295,6296,6297,6298,6299,6300,6301,6302,6303,6304,6305,6306,6307,6308,6309,6310,6311,6312,6313,6314,6315,6316,6317,6318,6319,6320,6321,6322,6323,6324,6325,6326,6327,6328,6329,6330,6331,6332,6333,6334,6335,6336,6337,6338,6339,6340,6341,6342,6343,6344,6345,6346,6347,6348,6349,6350,6351,6352,6353,6354,6355,6356,6357,6358,6359,6360,6361,6362,6363,6364,6365,6366,6367,6368,6369,6370,6371,6372,6373,6374,6375,6376,6377,6378,6379,6380,6381,6382,6383,6384,6385,6386,6387,6388,6389,6390,6391,6392,6393,6394,6395,6396,6397,6398,6399,6400,6401,6402,6403,6404,6405,6406,6407,6408,6409,6410,6411,6412,6413,6414,6415,6416,6417,6418,6419,6420,6421,6422,6423,6424,6425,6426,6427,6428,6429,6430,6431,6432,6433,6434,6435,6436,6437,6438,6439,6440,6441,6442,6443,6444,6445,6446,6447,6448,6449,6450,6451,6452,6453,6454,6455,6456,6457,6458,6459,6460,6461,6462,6463,6464,6465,6466,6467,6468,6469,6470,6471,6472,6473,6474,6475,6476,6477,6478,6479,6480,6481,6482,6483,6484,6485,6486,6487,6488,6489,6490,6491,6492,6493,6494,6495,6496,6497,6498,6499,6500,6501,6502,6503,6504,6505,6506,6507,6508,6509,6510,6511,6512,6513,6514,6515,6516,6517,6518,6519,6520,6521,6522,6523,6524,6525,6526,6527,6528,6529,6530,6531,6532,6533,6534,6535,6536,6537,6538,6539,6540,6541,6542,6543,6544,6545,6546,6547,6548,6549,6550,6551,6552,6553,6554,6555,6556,6557,6558,6559,6560,6561,6562,6563,6564,6565,6566,6567,6568,6569,6570,6571,6572,6573,6574,6575,6576,6577,6578,6579,6580,6581,6582,6583,6584,6585,6586,6587,6588,6589,6590,6591,6592,6593,6594,6595,6596,6597,6598,6599,6600,6601,6602,6603,6604,6605,6606,6607,6608,6609,6610,6611,6612,6613,6614,6615,6616,6617,6618,6619,6620,6621,6622,6623,6624,6625,6626,6627,6628,6629,6630,6631,6632,6633,6634,6635,6636,6637,6638,6639,6640,6641,6642,6643,6644,6645,6646,6647,6648,6649,6650,6651,6652,6653,6654,6655,6656,6657,6658,6659,6660,6661,6662,6663,6664,6665,6666,6667,6668,6669,6670,6671,6672,6673,6674,6675,6676,6677,6678,6679,6680,6681,6682,6683,6684,6685,6686,6687,6688,6689,6690,6691,6692,6693,6694,6695,6696,6697,6698,6699,6700,6701,6702,6703,6704,6705,6706,6707,6708,6709,6710,6711,6712,6713,6714,6715,6716,6717,6718,6719,6720,6721,6722,6723,6724,6725,6726,6727,6728,6729,6730,6731,6732,6733,6734,6735,6736,6737,6738,6739,6740,6741,6742,6743,6744,6745,6746,6747,6748,6749,6750,6751,6752,6753,6754,6755,6756,6757,6758,6759,6760,6761,6762,6763,6764,6765,6766,6767,6768,6769,6770,6771,6772,6773,6774,6775,6776,6777,6778,6779,6780,6781,6782,6783,6784,6785,6786,6787,6788,6789,6790,6791,6792,6793,6794,6795,6796,6797,6798,6799,6800,6801,6802,6803,6804,6805,6806,6807,6808,6809,6810,6811,6812,6813,6814,6815,6816,6817,6818,6819,6820,6821,6822,6823,6824,6825,6826,6827,6828,6829,6830,6831,6832,6833,6834,6835,6836,6837,6838,6839,6840,6841,6842,6843,6844,6845,6846,6847,6848,6849,6850,6851,6852,6853,6854,6855,6856,6857,6858,6859,6860,6861,6862,6863,6864,6865,6866,6867,6868,6869,6870,6871,6872,6873,6874,6875,6876,6877,6878,6879,6880,6881,6882,6883,6884,6885,6886,6887,6888,6889,6890,6891,6892,6893,6894,6895,6896,6897,6898,6899,6900,6901,6902,6903,6904,6905,6906,6907,6908,6909,6910,6911,6912,6913,6914,6915,6916,6917,6918,6919,6920,6921,6922,6923,6924,6925,6926,6927,6928,6929,6930,6931,6932,6933,6934,6935,6936,6937,6938,6939,6940,6941,6942,6943,6944,6945,6946,6947,6948,6949,6950,6951,6952,6953,6954,6955,6956,6957,6958,6959,6960,6961,6962,6963,6964,6965,6966,6967,6968,6969,6970,6971,6972,6973,6974,6975,6976,6977,6978,6979,6980,6981,6982,6983,6984,6985,6986,6987,6988,6989,6990,6991,6992,6993,6994,6995,6996,6997,6998,6999,7000,7001,7002,7003,7004,7005,7006,7007,7008,7009,7010,7011,7012,7013,7014,7015,7016,7017,7018,7019,7020,7021,7022,7023,7024,7025,7026,7027,7028,7029,7030,7031,7032,7033,7034,7035,7036,7037,7038,7039,7040,7041,7042,7043,7044,7045,7046,7047,7048,7049,7050,7051,7052,7053,7054,7055,7056,7057,7058,7059,7060,7061,7062,7063,7064,7065,7066,7067,7068,7069,7070,7071,7072,7073,7074,7075,7076,7077,7078,7079,7080,7081,7082,7083,7084,7085,7086,7087,7088,7089,7090,7091,7092,7093,7094,7095,7096,7097,7098,7099,7100,7101,7102,7103,7104,7105,7106,7107,7108,7109,7110,7111,7112,7113,7114,7115,7116,7117,7118,7119,7120,7121,7122,7123,7124,7125,7126,7127,7128,7129,7130,7131,7132,7133,7134,7135,7136,7137,7138,7139,7140,7141,7142,7143,7144,7145,7146,7147,7148,7149,7150,7151,7152,7153,7154,7155,7156,7157,7158,7159,7160,7161,7162,7163,7164,7165,7166,7167,7168,7169,7170,7171,7172,7173,7174,7175,7176,7177,7178,7179,7180,7181,7182,7183,7184,7185,7186,7187,7188,7189,7190,7191,7192,7193,7194,7195,7196,7197,7198,7199,7200,7201,7202,7203,7204,7205,7206,7207,7208,7209,7210,7211,7212,7213,7214,7215,7216,7217,7218,7219,7220,7221,7222,7223,7224,7225,7226,7227,7228,7229,7230,7231,7232,7233,7234,7235,7236,7237,7238,7239,7240,7241,7242,7243,7244,7245,7246,7247,7248,7249,7250,7251,7252,7253,7254,7255,7256,7257,7258,7259,7260,7261,7262,7263,7264,7265,7266,7267,7268,7269,7270,7271,7272,7273,7274,7275,7276,7277,7278,7279,7280,7281,7282,7283,7284,7285,7286,7287,7288,7289,7290,7291,7292,7293,7294,7295,7296,7297,7298,7299,7300,7301,7302,7303,7304,7305,7306,7307,7308,7309,7310,7311,7312,7313,7314,7315,7316,7317,7318,7319,7320,7321,7322,7323,7324,7325,7326,7327,7328,7329,7330,7331,7332,7333,7334,7335,7336,7337,7338,7339,7340,7341,7342,7343,7344,7345,7346,7347,7348,7349,7350,7351,7352,7353,7354,7355,7356,7357,7358,7359,7360,7361,7362,7363,7364,7365,7366,7367,7368,7369,7370,7371,7372,7373,7374,7375,7376,7377,7378,7379,7380,7381,7382,7383,7384,7385,7386,7387,7388,7389,7390,7391,7392,7393,7394,7395,7396,7397,7398,7399,7400,7401,7402,7403,7404,7405,7406,7407,7408,7409,7410,7411,7412,7413,7414,7415,7416,7417,7418,7419,7420,7421,7422,7423,7424,7425,7426,7427,7428,7429,7430,7431,7432,7433,7434,7435,7436,7437,7438,7439,7440,7441,7442,7443,7444,7445,7446,7447,7448,7449,7450,7451,7452,7453,7454,7455,7456,7457,7458,7459,7460,7461,7462,7463,7464,7465,7466,7467,7468,7469,7470,7471,7472,7473,7474,7475,7476,7477,7478,7479,7480,7481,7482,7483,7484,7485,7486,7487,7488,7489,7490,7491,7492,7493,7494,7495,7496,7497,7498,7499,7500,7501,7502,7503,7504,7505,7506,7507,7508,7509,7510,7511,7512,7513,7514
0,4326.185129915452,-43.66510735206073,-7553.703183986381,5027.768266770133,866.6844086133397,4454.984772101876,645.4453691717943,-9998.86811903619,9468.106440518974,-3766.604098952435,2326.1545443756313,-669.42571674577,-4029.07481226801,-3868.310855696093,12197.629064123636,-5842.23185338284,549.5778407637332,81.6194344986698,-2211.2635840928206,4662.320276627846,2935.4920818027645,1126.8960736385418,-7559.1190716259325,5149.566605259744,-483.42710092219585,-5870.507583118872,11620.788819830574,-4932.174312069979,5363.79083924306,1185.8382193227505,-2327.920497275661,5768.416592198808,1163.4708768199714,3102.82498043318,-1441.1761734117476,3820.5468883047242,1927.1919396346204,1321.6776757027653,-5134.795586408331,5988.870389502784,-5182.801743267455,-7708.733737229773,-235.85962053212717,7822.054763060912,145.93291642094962,-7131.285517146922,49.59053433631634,-1908.9073099193263,-1823.8853754076838,12463.68404045446,-13281.167556411672,671.0044005813804,4357.000628290972,837.6169891511655,-17996.27738692703,14368.682604382826,-3225.9993190253695,1707.2531172720296,-1536.2780756543489,-3406.2882865499046,141.12028298797296,403.30200028638734,-87.6945596170421,-852.862495588543,-3079.4859602759807,8544.921499879167,437.18521444511583,-9433.56863416519,5716.195653687214,-7813.792076729101,3892.550406301342,6913.515477000379,-9038.662617285849,5827.120223589575,1862.0111686655198,-2033.5278946717046,7599.0569344944215,-9371.471626451725,7610.432627345686,-983.5351816960075,2613.394704638407,-695.9498623952828,4274.253671409775,121.46118607379965,756.1638872690413,-8055.578711605035,1171.5924016480938,2552.367735031847,2860.0930814000244,4612.07355795,2551.1488650804677,-3393.770200604721,9837.105038706304,-247.8089883817516,-2016.8997094954282,-2164.140871885472,441.978913071037,2565.176535669729,1590.922232733933,-3849.5537129069444,10153.580425093533,-8720.879368017737,4986.464365044824,-2604.041788463879,-1719.4884049175948,-5809.133465721065,2899.7243846115875,837.4005181951024,2137.1579538921023,-5596.651723372563,15314.452471427023,-6460.029442183967,-5717.035638821441,12777.314181180427,243.40707755055612,-4210.7608210994185,6227.39904341779,-3196.73426951651,-2217.9124567908143,-8285.86388669666,4902.969026697909,1462.98186738409,-5861.175342938745,-6533.058287467031,12533.262571055395,-18615.297516880702,10743.362628510862,-1139.9151663486002,1163.0710420880825,3513.8824612820104,-3955.4997658894513,4063.7756011516203,9332.220068504828,-14441.094716304098,-4709.808910519239,-994.0657896616503,16309.578312443617,-15112.612277627832,-4999.0997407178975,2837.037791814379,4764.083434279297,-3176.815563704261,-4434.501616716724,2186.269363146066,-1250.6455918138047,-5071.882828470602,11693.5455915028,-8631.778869031888,3089.9253886258916,-4623.7293386773845,-2711.8573299900536,10351.770571794543,-7583.490817825417,1913.0759361542773,-3639.0599417772196,322.88761771731254,-4527.845611119879,16123.851623276489,557.958825708844,-4717.735333340734,-5991.886235014693,3862.92766614658,3434.00693808691,-9849.65922436888,-4538.5335622260245,4911.482818186368,3093.7329261051236,-5686.904175630027,541.7082665274996,6938.138919012009,-972.2902616349674,8015.307512283983,-8801.663658679548,9747.700817707919,-4240.517839214468,1743.726863864253,355.3993202379661,-593.2846548756535,2488.2248471388452,-3422.739951312384,-5083.644058793408,4330.120057949995,-6503.685492029077,8471.837661049163,3136.5193430498925,-12808.254889595046,5970.713245887807,-2668.530673153892,-875.7505606015993,8828.65241581569,2048.4887428816005,5328.233690234757,-3630.2255027632696,-3106.30584558637,-610.7962280322866,-3995.0066911359613,1398.29199976869,-4469.287189423347,-8792.990663488965,9345.25913910784,-6818.717255350781,707.6010585966907,3415.1136868662993,915.1601868983973,-6560.630310964021,883.4689174686547,7110.393961205742,2897.2945081266334,-8216.235649463737,6433.704960947333,3141.247853782437,-126.10929633896798,-11439.113584299483,2360.2769200448815,2521.9746486794947,-1590.6119266057108,-6717.870443603393,3341.4419388128294,12373.036166765658,-24798.496557201495,7980.14141787418,536.954523675446,1029.895562342515,2629.057994887649,-11223.959871611167,-998.178812832179,4043.1476790658676,1416.814284552992,-1659.45772734878,1050.2584430856875,8892.546594531997,-17756.71059185923,509.1153549330099,12746.374084748999,-1935.1318153556424,2824.4383506936447,-534.9220257102492,-2935.1819526741,-10215.57688426333,9202.778285578677,-6441.075592310169,-1256.9145331099132,-2673.370222833223,9934.483051273164,-881.9557583802326,-1214.6932913422006,7080.826745244357,-446.5362521291965,-2576.6482176215495,5930.704417894719,6086.8076112678555,-13044.015750315324,14145.228199153838,-6986.447844487108,2614.005528645178,3932.0122952267175,-6097.719286235603,-2824.487042903698,-394.44696066848877,331.7627291903738,7335.126920705136,-9675.77529915951,6740.912329483132,3266.3556738505363,-463.7336258132725,-361.6706412352715,2988.4045288917305,6241.440436494725,-5854.793351826288,10049.657317724736,-3260.752267686953,-8921.522787765767,1380.9253330218457,-51.93347535792971,-972.4220978099795,23.467350267514995,-1128.912041602152,-9202.29074470889,7795.156960728862,10853.303113718393,-401.0335916377969,-3944.919805802923,-4652.7410920236625,2504.755725990368,-19041.39922749465,9377.260950051132,2114.458829075387,-1429.4554278522305,-6246.649799634361,10779.996856574313,3414.78716200118,-11496.26734661063,224.68184567203323,-70.75020197159756,16268.993748535446,-9774.348075507536,-8341.105248394731,9481.189017627295,-9231.903763556385,2152.9768407518727,5353.436140728268,2073.701589340554,-4954.18753970059,-5079.2867257577445,6064.491241537897,7907.642121563041,-1083.199842272727,5596.814159142354,-15144.147503112761,-1235.0335616095474,470.6994938927844,6548.313118925257,-2055.145942453554,16130.043942094351,-9489.955430405207,-8358.414814248174,-3874.9486285804574,-4700.014184764155,13854.839191701372,-9291.266021085165,7409.221803045536,-6317.48786455196,-309.0633749799839,-9965.454171741854,1501.709159144672,-1384.1284979029012,701.8723738891442,1862.1164164536974,-4920.26653692742,5212.657343292671,1405.8631081105493,-1402.336413411224,4171.014773988734,-463.5268096331172,-2666.2791230818348,5557.356981789132,-547.1377434520458,4029.751962567963,-7214.381813152355,8738.149268725758,-10482.01387784059,3464.485290227957,6796.3222463094025,-7517.098034481414,-2095.986709394414,1057.2157705123907,2405.5243482690566,-9497.463035215176,12192.08766318445,-5997.647435029083,5094.682229700551,-6768.032184376502,8931.271839081512,-10501.6123440769,-460.26370997086707,9010.908693554702,451.5958462609732,-9919.339223226498,6222.472772645005,5374.199756062605,-5990.739706017307,-9969.749593098693,4555.497622134088,14531.599659127385,-2565.894937522213,777.2820151106356,-11091.747640729442,19309.031385922637,-8966.280868466612,6790.838890884089,-9944.206143309093,-4965.25060734362,-477.2386579169906,11297.728826178942,3277.043678367812,-11503.866973798587,11899.84324813402,-5185.140648334954,-1865.3408926730522,-1421.8542509382064,-7306.491771901911,6247.31068902024,-6659.542356716237,3157.589548821474,-496.217979534411,2757.780953612423,1549.4886864648124,-4775.125075658991,5277.744876718027,-12320.817508836628,824.4158819889436,11126.538600261978,-8099.177042388219,7238.093517080603,-1701.9103536643076,13672.681779063027,-9012.952678498956,-444.6655440502855,7998.114964941334,-11785.443192093117,12404.231763328711,-9686.726560774952,3521.2026277795026,-5906.729943468896,-780.6776095498269,1630.4250239115133,3509.2659309148353,-4908.958404450552,2695.611098760192,-11374.882330852752,12710.523995693426,-6050.445659103465,-1120.9607194007294,12769.849299534895,-10937.340945518275,-7582.870600551837,5734.969300701013,-1081.5899972728228,5980.905218370064,-3933.9235013695793,327.00022818436963,4372.92920061523,4571.56404213733,-7076.833663622719,3772.189899627294,5427.603216051535,2858.8321650036087,-11029.125745769834,10056.005161038276,-2451.688100238096,6318.81310772619,-15356.622326558325,-8350.619789987257,14191.268275489558,-14054.124828189104,4495.602552741395,1888.8578332806658,10799.130108083173,-16868.97834373661,-6356.684115112963,3698.8205768563716,8855.770156924033,-705.2022679582369,1846.8986587414274,607.5048225064631,-529.9422439345005,-4230.125118592679,2161.4772650834457,-5553.357039666753,-363.66822930462513,9275.51478091573,-2637.8351585195396,202.0155947630391,3382.130056336935,-11239.26363232427,2768.4623973223825,-1556.29979617334,-201.89697823797383,-6995.402077594609,10557.552530947432,8037.420719516917,-20106.232367576053,8314.42110125725,2197.814025048809,-2388.748278796793,-1494.0839890526747,-1588.6149984016856,-6164.851866127781,8712.605347203253,-2457.416774066103,-5474.1430003603855,3166.6051026937344,5971.976272914584,9165.66801683405,-3350.256183418972,7633.201613696686,-7777.5057589092285,-4059.9281718922684,2871.32094862404,2717.1424150163725,4425.079751068432,-12324.357765265253,5216.790188613501,-1174.1341225177932,4963.5637950526525,-2524.0071295505318,-8344.717356858007,3076.5650513512837,555.0680421479352,3384.9724482292486,-597.1198734742792,-9148.900935361231,6036.935026431698,8362.582822135075,-9587.879851195443,64.07655664977457,3629.174182437421,4308.828985528591,-4199.703695217352,4745.337947503149,-1062.8108192672635,10380.658036456627,-3102.05856539846,-5834.002683064976,1107.8498812983908,-5115.4310460080715,11047.587850961092,-9534.373760137714,-3398.266676986377,5362.9229230650635,-2008.5996834832251,-2946.249588412209,820.6999239650488,4004.9479782408307,8402.565205578017,-6014.571616276828,1571.2219347550893,-2904.1692696268374,8906.091722896137,-17285.32977192574,14431.61906152731,3192.7942650689038,-17500.457823580582,14706.474507913714,-7913.894123796619,-3492.5244875176145,-613.0497199916147,2267.598990829439,-8640.503216574445,1399.0332782255405,6615.339431977505,-2348.645166257477,7317.601374207956,-18974.832465554602,6259.193202613114,-239.24292260377283,7344.015301013117,-6924.939424184887,16738.937782972276,-7273.240830077183,-1580.3466500659713,2863.063488631821,4091.397826100593,-10791.47312667763,11471.749194811448,-2088.1330537991166,1205.9703430248408,5583.998724524027,8689.93690279925,-13980.541607715273,-1255.434192789512,-1661.9304808640768,-463.35299842648124,-8607.005555683587,1406.6535698525984,1877.0428697609013,13603.226705389785,-7448.825105002874,-12792.651735091093,-971.0178665183522,12689.593723535665,-8232.971821314428,-538.6903041740798,225.11772407626268,2004.6077669882577,5841.2149222978005,-2084.276623917458,-1954.8579315936588,2556.7830075329416,10790.90980356905,-5847.949023907622,1456.7267316527712,-1678.6071964933117,5459.158805076304,-8681.649942303673,10273.825303317662,-4602.242594972051,-5741.043863155141,-4520.879708338392,6394.160672185161,7227.061490821716,-115.02392263320326,-5258.236562796373,3567.021232831576,-10629.696877790766,1958.8299901152561,-2369.909742237255,-5609.4075598112695,-2590.338448967535,7462.241778092474,3766.8137582363097,-6467.634752528759,-5471.01043352771,11727.199308670843,1598.2546585209752,-6883.725267900429,1972.7944325021347,1232.977996445461,-705.7598111690181,458.45587847904034,-407.60144259436333,-5163.481517536852,3256.238581662272,3276.339812693859,-6023.078016570162,7008.535780318866,-713.1396617281306,3058.292208854202,-10081.289565041981,8499.56567991153,-495.0397832717518,2833.2797035991925,-11749.991087277886,8508.435308635515,-865.331323313441,3208.458787610368,945.5756539165642,8172.846747268703,-14882.118012670675,7193.106167645098,4968.339157194218,7674.252455137429,4946.706398812621,-10637.009621084679,-2924.9046602590465,11017.29364056505,-7500.661207887304,-1291.6951258402912,-5733.791374203509,6262.154640548269,2638.840340880743,-5352.750388518301,5793.507939373746,-7953.556314116307,4120.670631843049,-2715.009600885181,2342.8964879081595,-6020.849270502366,-8909.314029659143,17497.532983646306,-7150.0760530557845,-81.85558128944926,812.2503553905022,-2291.620531548081,3199.7956868634633,6012.029711321341,3268.3035010775984,-5373.265632693489,-593.3258712946362,3981.5954675599614,2245.327892756162,1439.2846339137438,-8969.340437628904,9483.172448681456,348.61244105961595,-5111.668078064546,8614.907741690253,-5426.630908834264,-352.39595789721164,355.35266719681107,6942.419685257665,-8361.583090614804,2204.2975310062525,-3945.8044331102483,6800.089379518584,5445.501535126333,-15604.65946212909,3398.2123160693036,6554.681871338782,-30.69813296325141,-58.738213859147294,5311.057772192691,-6829.91156195137,3295.2013086109037,-7330.67388112152,2461.28379879082,7079.822064266911,-11612.502859465478,2741.1756473375776,-1672.708687872687,3518.566900952245,-1604.1455200994576,949.5815947427069,-3252.1397363957744,4518.060684206041,-6813.6003217259495,7494.732240423771,3715.6958118016028,5604.157316680341,-3445.2023645935765,-691.2460950588493,3015.0826780889224,-11648.046799301408,623.088140081281,6205.7450459713555,8821.232591654327,-7583.459957447855,1935.1483905317152,-6704.650342600386,10243.49874258788,-3335.0611954708006,5185.54489958052,-517.6780584238793,-5178.169605397734,-1429.178533746658,-5811.06196508727,1280.5658726147296,5129.077493737824,135.6952714483424,-4609.562899033704,9806.98386632112,-4197.3343170531925,9396.928575758364,-3536.937604661328,-2458.130993248225,4131.958770062182,11342.746962152258,-18981.276283416257,5754.966791922443,-1485.0148713312672,12173.196422668807,-3528.334687208923,919.6613241810576,6141.358246833992,-6985.272397062264,-4797.057048137332,2683.1667348488945,8668.342892920293,-9171.134909500006,14673.515005721812,-3977.803679654265,-2364.266160658781,-5658.439715300852,-6607.643536489911,1051.6034523247572,2551.391818830763,-3734.8570736150036,-6364.489854293286,8752.670954291161,-4406.901636822923,9210.349808182445,-818.3749091521543,-3211.921442269244,-7671.524515361425,14545.173552446848,-2093.6142777776213,-464.53839648806127,6469.337504635923,-12534.636813759062,17144.034166526828,4384.388577776744,-13511.264275924324,9057.298394464138,2350.3927288567456,-903.6842894832797,-36.30262260767749,7555.159910592009,-3968.337855058025,6946.962956259783,-10036.143884414556,1542.6933469691112,9200.444339194082,-6645.500770413357,-1850.809012899436,10198.202881944888,968.6575750249466,-4211.133324149141,-3290.4494955879427,6391.414582396627,-4284.4465444573725,3969.550749345244,3367.362488853533,8832.54772152406,-6220.21993893843,-4353.344701632543,383.06363220772903,-8144.865835824122,15591.490617428673,-4486.308923657328,-9927.170584407078,4128.649042085645,4218.7289955255665,-3818.2964191241704,9290.933746184117,481.6775161372159,-6728.049986155904,-279.33924320619866,10675.034740514797,5004.875436924715,-9891.517586862125,871.40494691108,2342.561297430797,-5358.609401783365,4692.346656727171,-14697.274850935473,7377.839749126021,-2004.982992006609,-3015.3429698114264,-4807.816587674469,6778.442516160427,-1194.6197104348246,-9499.143926184992,11237.63484122745,5488.229095313136,-3197.363228362607,-1487.0710733070036,2335.3493877781602,658.9154048923752,-1777.3887971929164,-1137.5936449762366,6847.174465109199,-12865.706398017652,6485.643769107401,5226.039957611367,3640.5942443902527,-10416.400357691855,3544.4369807145795,4275.999997725444,-7288.257569382529,3532.825021156968,7476.056265671265,-12357.53270492851,10819.269606533884,7871.218794634673,1045.04634373644,-12282.599048954582,-1513.7753665961116,1719.6645458360724,-6784.730565042114,-2126.492236549946,5194.383231341327,-7036.775514263743,6233.81815842001,-6181.969543388699,-968.4602848524845,4684.170159858484,-3694.319188947879,124.69147041350458,3831.3575556413143,8075.797315575224,-14132.680430201353,-6278.884159850576,-2489.0583311250934,6620.7100845490095,-4410.671126281114,-2387.532069638236,6140.20505832601,-2325.954147276263,3876.3648196477884,-144.94686344375702,-4983.770806649862,-4600.82744676052,10138.13141655824,-3507.3553371914522,8204.818457088386,-14448.649821506879,3306.2049317469373,5113.677882040984,4807.805917761015,-1992.8813858012786,-510.82327425904776,6487.973006946029,-8251.077104036003,4686.323663447613,-6627.437039821788,-5616.135828137505,9851.666309584727,-3911.7207171442838,-4281.751723550214,13495.853677464134,-4853.391242112955,103.64801037359167,-4373.660109016726,5591.312842452396,-7689.00972995013,12608.90029331215,-875.9193083325154,-3929.9275959058364,-5529.757570753472,-5071.465202920132,11962.199815161466,2509.2976743851755,-4326.076512661708,2248.605958336306,6372.840075201356,-6296.817795905064,6207.389038043861,453.9738635124336,262.22488790279186,-2074.012124627379,-1625.2233552185792,4437.814401460397,-1789.5986427652567,8328.173132211823,-9192.710435078976,600.2641755736202,3962.2226469172547,5832.031212916987,-20688.33134330362,13563.04429896436,-9997.970815783061,326.68705260138313,1853.403758768202,13062.337001240454,-8241.99444020585,5927.055194864706,900.9926330810674,-8840.30564617315,1692.0066673854528,4695.2274862813165,-2255.005087236315,-2916.47395310017,2352.303484635586,-1164.3497335451868,-711.3496007638486,2943.994218016126,-3233.0247323460057,8947.554593105026,-8620.60471530482,-11941.929269325103,19021.19723560331,-16230.656856301248,2242.970160527976,1393.0705308931147,94.99005111090875,-6765.114162849839,7465.3506123201805,-2104.8411614915553,-1128.3357437680017,-678.9221042723749,1366.7745170910339,5034.557090061035,-3448.3947637767037,3654.8062147109654,-6257.210905265625,4044.9383509114245,319.912290479776,-6435.8826441799265,-3260.300733486374,8821.508337957777,-16730.022013013157,10426.85458929608,8194.832642278794,-3207.03079078204,-1230.9674316614269,11297.150556674278,-3139.872457360518,1410.9876148045885,4156.301127027995,-8622.544653262943,-7782.739155179855,4920.041768483123,-4377.536606292984,5875.722792916851,2100.33528194985,-10937.332968335899,2378.8875131644577,3629.0311949423585,5669.887518272021,4518.071575412436,-172.25274949952683,-6769.097815481088,-5303.815321543966,6419.813924059924,-3857.071612336583,2142.8232489828397,8517.925564389308,-10993.043369302686,8016.0780894975815,-6422.338201904942,-9158.539605782325,3071.014650153868,-3784.4929152838026,9514.603649697647,-10811.908294502518,-16081.705099043982,14559.935742961225,6565.575886939857,-2950.637421830634,-3215.526908792186,2468.593924648108,-5968.585223728484,-8454.690935229104,8385.573912533646,2368.031430650185,-6834.019557744374,861.1692729649236,48.726033869531385,-2144.7988570147763,-12418.40800568045,15081.056827654336,-5081.847532936215,-6787.19995592893,12930.669896620293,-8074.475238908262,-1737.8584770731834,6571.52593934767,2852.1107316573116,-5743.772329559762,5967.41906288156,8668.246194289814,-24395.124342076087,-2099.9828067186063,4589.8881374582925,11980.605573090144,-1312.4888415980076,13361.256366194373,-7902.474439971059,-8845.068065426372,6656.051206422341,2681.7212596234153,405.8990439257843,-409.3548061959833,4261.038244078328,-8827.295318859735,-7021.490045770457,1707.7485465263858,15535.161256595782,-12709.08198042457,-2511.493767102732,959.0163852360005,-2534.0357477689954,6292.3362444223485,-4161.602309041793,8663.732215343744,781.4507979199814,-4721.324169240118,2963.47653660152,7011.503764068662,-6539.693371204476,-1445.071279597817,-1441.0666035740617,7003.930362354652,-4055.3083396823354,3581.855267543977,-16029.687004640577,-1154.4508209644412,-3314.5242502924,10626.914965237764,-5722.905717863174,-5282.659347188019,2394.9777667151902,5827.261353651395,-9922.99710162647,7892.449870506145,-8574.609764958812,-7855.708884122591,12588.039054875147,-6157.701743629739,-5672.703189351688,7260.311648725859,-3323.00902497989,-2786.9208358236515,3074.3159849890717,3367.115474421155,-11972.166028383943,-2673.1841227095556,4464.178268213177,-346.54104969820963,-6197.637135565709,4735.978011698881,5564.981807404604,-3421.377114445872,-3350.0524228164973,4254.967787877871,-7865.928904221864,19913.604089593213,-16067.87433327839,1185.1022308326365,4907.545883966247,-6264.4610709541475,-8054.209863964195,10371.589412732454,-5628.229777008894,545.0803600020271,1979.3245226115428,-4835.71423772344,7524.859142929329,-2400.250939424337,-10206.875989928129,-5317.636821100878,2835.645129964242,19153.132818557566,-4650.432864072475,-4534.122933452376,804.7128203543579,7665.671467508367,2167.5176334292255,-7672.767395562831,5653.987188468641,-6759.721630223305,-4020.2278293178942,13032.35860053297,-1163.0548027740972,-1738.3719353423596,4396.260121191874,3305.9345728437415,-4782.865570028203,-3108.941617498197,-5461.902691560352,9807.984859078175,-5765.141167410956,-11651.572829399263,4561.167478123119,9809.789004530256,-7672.549049541287,-3216.3171240474076,-1984.076864460685,3794.073031799007,-6985.130982858911,3947.7028906935197,3118.1273966370445,4953.349072843164,4091.556228385263,-3928.2466961826217,146.99645389070037,4126.421806195904,-2965.596962912018,-539.6135555417713,8950.669949056146,-9543.392539606508,1620.1610574008619,6565.5513922153295,-3441.631816007628,-1516.026879279687,3240.118888664958,-5053.1513389506235,-88.24977846978422,2858.8412877717697,-11939.709229414566,-1086.667117373488,7223.023138823462,-5881.39111312283,11952.00720618751,-8887.423018362439,-634.0437679003802,-8648.483087116718,15945.218718354721,-2116.147313149423,-7272.164806492888,-542.0257177038102,1766.178947193048,-7746.949936085492,9786.444545319018,-1286.1055663339966,-9200.93484681973,-486.4829953978751,5505.448284807713,2956.7486227705017,-2021.498878169025,6926.914332544883,3369.825176038628,-5860.779857513255,-10708.188504809694,7274.898750432849,-9013.066845158106,3104.491696224924,-483.36256148969113,8854.741405098226,3653.794650737814,-261.2365013496834,-4961.698128297371,4052.144588907917,-8020.508815741119,8445.087717394232,-12307.35166437841,-2494.244525968943,7716.86887799205,4217.318263104054,-10943.34618917663,7415.3515930106005,-7730.360844355847,-1564.2568809540119,-3678.698299749979,7412.185251006503,295.15439123134166,-3194.0528577351356,7890.4075918239305,-4867.946999841687,3567.9244197310363,1774.9232127068756,-8576.181986697335,-2805.553361926676,-257.2123746395773,3198.989819248675,-2830.081769472954,-544.8668525342559,-2327.4976589679827,-2229.641897786891,-2523.0710501102194,-548.8933400707515,5732.283500351668,11631.441773962402,-10979.838214969644,9017.3007998777,-4684.210902885822,3902.0728981824404,468.08596202427174,-2512.65484961593,1931.0608820513744,1588.5880795753653,-1608.2715119965653,3270.588563695877,-12035.922203112345,5710.982544180487,8210.128567679427,1079.9067923458551,-6306.360902355735,-2855.9110910208115,-4021.6704134267693,2695.696857736847,2488.086198212436,-1082.0113759213914,-7289.556453985051,6827.696445077401,-2350.4800225210224,-2705.520949940713,-10865.091412950816,-34.720444421559954,-2407.783728838279,15338.619098928037,-1427.3290114572142,-11247.78863624748,1356.4960174464982,11530.946541357103,-16355.30531873762,13016.952254209218,-2954.054308670986,-20633.48887174449,20435.484299402437,4541.273239750802,-8397.392749145714,8302.53178461097,-7688.469609781982,2795.183061833712,-3571.8936408044874,6359.918417430873,-12086.9507713038,5286.472561050611,7694.13986520961,-13027.469109751457,-1873.3219970501893,21562.77753507303,-11537.926542225432,-10255.394509417341,6880.3515120335705,4832.7017339194235,-9852.271495663663,14477.274542513738,-8841.452311767762,-3642.7863880683503,3740.6416995329305,-1774.8125388183453,1465.710724159545,-2187.9957992317445,-5414.097236909226,4624.371927015237,4911.303400584363,-3602.2848944067123,-4662.644187634663,5441.764064762766,579.6269437244712,-6642.5532810909535,3807.916510978867,11633.418806556303,-11055.62923991637,6481.135692819707,-912.5152252036397,3784.848794066823,6080.898516787828,-555.7091015766605,703.1234868862454,-11971.712411136241,9923.28696250743,-31.763108897401544,694.5563532806509,1191.3124493809423,-5143.613996932725,-440.2147471757984,-1321.236229439256,6513.923353213044,-10277.078987670764,10009.050575122408,-5249.179913401679,-5081.726412650016,7848.744098618975,5698.129490579112,2414.7485577937186,-14751.202204176667,16478.25110249111,-3335.0352456401174,-7364.588706027338,3650.889294078478,-1509.9327910627198,701.0404487916213,7470.967584656677,-8018.817056371353,-1531.4248898927242,-1763.569335687651,-590.2927479635374,-3629.526659334746,2138.4433570892347,-4732.384085999703,14229.68296891559,-6251.688810943796,-1709.472485275578,-154.71737537779643,2957.8443589176795,3552.1892957368195,-3708.2372155790567,2478.0104763184527,2035.9964325389196,3640.9090803970444,1948.4071433719766,-1829.4451758842154,-4505.6047884858035,-4220.1925775167665,620.2243658937368,-35.31446213233887,-5854.410254474734,16599.89672932548,-8421.846324908927,-1608.0370781659353,5383.084170535041,1144.7536349700113,-1422.9551512845746,6250.370660077855,-925.7073750794755,-7370.423217634625,11229.080752420155,-3610.4074494710567,8113.697397824228,-9148.535878458755,-1901.848304909315,-5352.720254676426,9359.306085135886,-1851.9216736551298,645.8841948451068,-4416.425732530203,-4415.011914888481,6991.2281711341975,-4759.360965931272,753.3106326223268,-819.6533245787048,-8954.658656320702,11736.800232224557,-6446.3600773799235,4292.069250117611,-2948.0276410622487,11363.510047500944,-8871.710140107018,1835.1873331828479,-813.8210494867129,-3897.7304576371494,1527.114842296629,838.0787273089436,1325.5296800011856,-2084.914837911182,646.1490063039886,-8594.942769877482,24.585880316216937,5720.147640877334,-4032.183689485603,-9346.1006796841,1176.981442246301,761.4343603821623,-7123.359666587401,2663.6179437039245,-1147.329221452559,2832.237339937255,668.4836567948801,3840.6122560667295,-1030.7092580357587,3830.4028182505635,-3031.8357173224435,424.2666616387937,-8933.579036755742,16629.75588742048,-8257.946956179552,8579.499403239468,-6829.776799723605,4054.474655750154,-4576.088688675795,5108.432597270966,-2305.216153239245,-9791.786227414965,8614.922496877693,-1085.42193231076,-1641.9510388301073,8171.1223501560535,-7652.824042649337,8031.47349648023,6043.497567540572,-2402.12816234815,-2808.0858699865908,7507.4241766248415,-7937.724024084767,-5771.951287071945,5930.043662734579,-9108.65792767155,15880.017925900662,-7493.626733125656,-1518.1614407421396,8674.592524573225,-14158.567531775532,-5870.0072069293365,10258.054803128513,5077.476013187429,-168.8784621743216,7611.783339420654,-18819.172568520684,15235.433076783991,-32.37847205881684,2083.0437989224274,-11953.431581068699,12782.788288380583,-3138.4931120249175,-1824.4007531238663,-9914.999228004315,3957.015709948053,-6359.853406628236,2382.023028656755,-2806.9407341999968,6352.80308960167,-1510.7351442820748,-7275.09379431903,7298.993820966316,-7234.255567603826,8572.943871263711,-8213.078365667367,10400.08144202315,-11079.983142167954,7129.4555481681355,-8525.750076813756,5773.582249676822,5255.961875127308,-9126.078653134062,-4250.313290544213,-3961.5462105207184,11454.61256940113,-1299.3942486838237,-549.1824657673214,-1373.2642086456744,6208.165894640619,-2982.7080710822047,2077.9377023193992,-4322.2362240389175,741.1276375458431,-416.1877600628531,10245.640418617802,-6926.350178247951,1817.5708113427543,4451.196508880285,-431.91819038724935,-9368.033879381626,-1885.492854049009,3397.9002636190494,-6207.629545929032,6025.46934185101,7395.997399741935,-8870.731923766618,-8697.495869525022,12090.654337438611,6008.955442491646,-8883.520179312174,330.02329544894815,22.217679179138795,9267.207476023592,-5690.844826542909,-6603.548896501002,-938.4678746162862,-1523.4909463480105,13739.331465318603,-8518.60724795569,8607.396660373153,-4982.594529118284,-1753.0111049882814,-3566.657748261126,-8776.711093352984,11514.066512069236,-684.1080167738779,-6840.2491178175305,8188.690627918653,-636.1232288844861,8048.343927698342,-2487.6741179289993,4073.1092345746597,7325.606439086207,-11626.22844530139,3436.2258413307404,-912.5476228644861,-7071.223693918404,8883.328007521604,-7196.319429238742,5235.5011933083615,-4589.183223587552,661.1064696786373,-8929.005652575912,12685.154356186717,9847.75731451327,-13270.055130681465,-3887.5260843051033,-6809.885196792721,11116.999168510289,2727.519343797653,-13547.375173968165,3039.3916465389034,-3846.847364026667,2822.0985665057947,-16382.664001055979,8805.228497034455,4081.9672969343856,-1776.335219412216,7433.308313588549,2594.5139920250595,-4378.893670910957,308.04106860375816,6611.235575780264,2211.3073643059233,1533.1037569946918,-5054.3231304817255,-5679.021688533842,-1880.8414249022244,-2297.8580683273713,-634.4802956662816,-5968.718485689219,-584.4666607874675,1050.6060689843746,2110.4791676533637,2365.967341856704,-1716.6180827437772,6265.080556412444,-40.560443321398054,1023.4553166112615,367.52137582735674,6407.223605740848,-2445.8707100660868,-11444.313436816174,12605.695397219642,-5073.923664373545,1125.705013580452,2537.208056783655,-2012.12179702332,-3175.5104969504423,8359.942394456262,3118.838119170957,2907.436623626809,-119.59202832377464,7947.931156462832,-6563.059905363181,5641.1576896519655,-8555.825632698028,-278.3017894989773,485.7523012490313,2271.049450480038,1632.3626396658663,3692.863694223571,-5470.238783062923,4862.877923773654,-10071.420716849138,10369.489408575282,-2770.1575117154307,-4550.199686642978,12967.47529873394,-10572.410717338074,2693.652211096502,-5891.160820836802,3568.506388582901,-4945.640190000582,10929.81016676612,-11299.456055011631,9644.56708765811,-1693.4128901924157,-4292.385826072236,995.7024018463504,-1243.3783199827622,-9880.850794836304,5125.561242536948,-2474.8300381401664,717.8308549086802,-8000.4667229131155,6165.652458674142,-2622.817976168688,1896.0392885567799,3904.3683668757676,-11932.861287462101,17403.886040110003,-4220.5344048269,-966.6203757102817,-9060.955479863293,2255.045060843363,-6332.194729177656,3371.1794141822293,2975.010341576006,-3195.635991972472,6835.258892296032,-688.3668907668654,-1189.3869455139338,2101.9218547602186,-1196.6336708074782,-7779.176701761068,13228.48690597547,-12071.713951377897,-4321.195645051371,3887.5266452058127,9861.667854333456,-13004.296756883312,10521.130057112827,-7252.444297314323,-251.5204142144255,-7967.751174324695,4670.751425899698,-1922.7449502616923,-20684.68428233387,6842.645656417698,3466.8483850451844,8103.466723659279,-5334.740911328957,-7190.082472640805,5413.648227711084,1468.2733355382331,-864.5695551305622,1719.734307311942,-2541.61908395856,-2655.9266549502663,-6800.7458408720595,12856.761629066075,3541.8370998995933,-7875.198099287397,5023.717573379891,3074.1640188808337,-9043.679555873876,530.0703507968757,15899.925335102658,-11450.965180244551,-3775.3857327642963,5430.000695480367,-10752.22997426269,11318.75681019181,-7953.608064552351,5251.513061530124,3663.7176071080626,-1500.3212029698982,-1573.725709337918,-16092.81180889152,16714.35513256821,-1774.6729590687537,-3541.090820973251,-1855.2983066353067,4276.882193730397,-3225.7830867319276,1490.6164417051564,6599.690258491851,-11450.205791857192,8433.570796950642,-2618.020884268705,-6375.419919737092,2160.3795123172317,11092.041206298729,-7395.470187477372,-6974.3958147952335,7677.315338383014,-11389.418235012254,-201.2096168265606,7117.068680936763,-1891.6515902312703,-2708.172295470857,-6156.724999516356,5572.472029110289,-12034.387420034658,6056.580530695726,-2260.2962196597805,2.738813008727084,-7166.053473525723,13638.536971132207,-9184.63175667334,-3310.084975430012,-4358.838684684814,11051.844920217123,8197.009883509476,-9563.96514681429,-5388.024270275991,6976.055937587836,-1208.1657769819578,2543.3965917757605,-1147.8161068285108,-5489.062906553648,-1928.7349532392673,4135.734538306541,1108.5744794041298,291.0596933632863,-11801.309465270118,4871.363638309743,-6531.275897604686,12113.604818481608,-6733.723176265971,8772.83692289603,-8272.154406510263,12067.88713259564,-4037.615630170632,-8665.529025103398,5879.665921730219,1675.8154781524427,5847.618125436527,-14597.529267105916,7921.3693787000175,274.41446055746826,-1145.926349690735,-4067.433261353164,3221.3490371855023,9658.947531256685,-17392.48886484602,4965.523576979591,-4590.12238675486,6888.027894759595,7600.063411141896,-10124.199462251212,9032.756088345837,-9559.711684376385,1981.3448166996125,-12778.768249223267,13211.142734044259,512.1958138931063,-2898.801810121942,-1621.60236142006,803.9780424863252,2652.131556207873,6426.320927092323,-6672.946336863891,4193.861096242681,-10127.140055085734,-622.2089420377122,7589.925324818181,3321.11110042973,-8989.389821045099,4594.911995528408,-7153.122003071785,956.0041749126307,5481.032175205178,3094.818502502545,-3851.930529982943,4433.195094724974,1549.7883270570874,-14609.559421934138,13965.965132055057,-2223.676086571352,-1059.5102341018473,2518.0220656532447,1285.4376253801995,3905.8934101476834,-13428.335496967838,3308.8685256640324,2367.2404582052377,2853.966962611972,-9032.276934415137,3576.8757796083464,5586.404516606956,-3427.4276486841973,-6892.979993035735,1333.1483977632836,7264.935126257989,-920.665861513124,12072.69608450361,1245.5407965193356,-6621.682274123085,-2622.2036478162872,3314.8344610993754,1594.8683048567116,-11751.9808700217,10653.347328688042,-1001.2861168531073,-1301.0909376026204,-4521.911257251483,9634.334809592112,-11649.2992453044,-5620.204854883973,4151.81696972713,-9715.769889065583,-622.5126689007526,1747.1061696000263,-8715.971916988194,16592.71657419178,553.5933528292575,-3649.8449859201164,719.4778975032424,-19.03800109530057,9114.903259212653,-514.4968598809512,-10684.174791635194,7437.867038295107,-10313.479733877022,1723.9816245214063,13412.39745764101,-1100.3024076011961,-96.42266673344763,-5087.363815466889,587.0033230168103,1289.850714183245,-7707.633372468242,10493.035905265477,4831.934433488321,-2575.7301258555717,1147.1166289901093,1687.8724780275027,2114.0234472168854,-11808.671313765391,9697.758953959588,-834.3239356475501,-1260.3865476049853,-3383.6663102241305,-2220.4791451090905,-3085.7862460606466,1381.4391404026828,-8595.52605532207,10053.579985286062,-6155.113600459224,-1248.2132094319816,-2667.417208218596,-3304.3599437547605,4343.066237755112,2926.2008524586336,-12931.04858158849,12755.924285852458,-3471.11425402594,1468.5464709104624,-1964.551014752296,1088.3072262515511,7546.70347883082,-6382.009138212977,-2304.2022993870396,-5598.17972589606,6003.464707404006,-2688.514105078742,-3677.522049810139,2422.661206778289,-6767.99008944888,1011.6173287635304,1405.5356948763065,-5425.682169406225,-2377.4643918694674,9825.726045079755,-2148.813867463622,-2581.2267544601177,4695.431124435858,-9351.115071029571,8123.2286420640585,-7099.874469933549,1670.5021539638972,-14300.267782833958,16394.34645361216,-9450.282807733562,14320.576587013631,-6703.390436402956,-7562.156462662064,-1477.8503058185206,-2119.789833467979,-3078.362551988229,5930.63555523546,2721.708672668667,-9794.971792025965,-4529.667017928118,15122.9925071442,-16312.206468379116,567.4450615444138,8287.502995921504,-242.8948817051119,-15618.883589836181,11113.970278385845,-6184.58645896996,4333.098303726356,5819.100504555307,-6414.976761330718,3478.0107628763944,-414.2988186156141,-107.77481854630254,5357.942879207499,5766.288843022612,1774.1393112344276,-5462.3518657163495,4468.129086001276,-17983.828539785878,9146.781726215968,-4549.955525817548,-17768.427181673516,9835.36283761499,18007.53568523885,-7880.562749337945,936.3240994738386,-12914.811663307393,6087.375406655262,-3279.748156475169,1859.544406268153,4868.078059939929,-10342.412726136576,4619.863471709061,-8355.32607847679,-6272.478272507296,1078.8857011537716,3124.443960242225,730.9111044509923,1633.1051638733595,8242.189107666072,-12945.540798688646,14171.585155101235,-13791.128808840836,-910.0356466357182,6030.089058375378,4178.000718604005,-997.6580797126123,6879.915303623836,-7778.905496972182,185.42015899627694,-998.0708118379166,801.2900779884644,4900.580028935572,-3374.109272370082,-4339.4273778196875,-973.6513691672053,6439.9032810370345,-15909.309916902905,11776.181781285277,6489.333451184952,-13307.10648099867,3988.413149165243,483.1182734046242,-773.1758023515638,635.785976451603,3245.2188876171695,2107.344538565104,4979.144206665458,-5105.801169122876,4143.500630541251,-7401.359223572586,3092.2821924470504,1771.6835061330933,-9737.11194647336,9643.140216284379,3805.8199186696356,-3480.179592754692,446.1214963263688,4689.166840626368,1849.3269783856026,-529.666583433994,164.47035587593302,4350.859161708463,851.8893460427913,895.5747238919088,-9602.097168085736,7504.86842672402,-8967.88853966852,-3163.470000005889,11619.551340535723,12160.53928005268,-6676.246397791647,3589.0246186791483,-4856.703961975535,-275.2436769997465,-6863.50758354612,8003.543659570875,5349.660390261329,-3966.498457558264,-11877.896158075948,11971.019187086888,2278.225488467151,-3361.2413322976518,-2040.5004979045689,-458.62188368539006,11269.998302658432,-10358.612035726037,-1386.891395386347,3382.3261990321894,620.5394453354015,-4309.98867673927,1304.9335489573575,-47.35807708034758,-3602.9759347477584,3948.222091838806,-6570.632574799638,14755.422693239123,-8009.4895377667035,-8227.463953089886,-3945.284110474091,9982.853292338978,-6195.921562242267,9045.319423928137,-14884.378512071778,2788.167815113621,2938.961068404057,702.4612486444335,2916.097708148509,-16885.4274745022,10149.192838122894,838.0519991870981,984.9226022191416,-4740.567335385398,-2039.963923204346,4390.110730530759,-21215.623240485824,14436.314738666073,-2426.6953680475362,4986.82518567636,-9069.010929129245,8592.359753001037,-7090.146389419438,-533.3749034957838,1473.6504906304906,-849.5623757523578,-6259.588046406458,-5289.093866148955,5142.227534518778,2348.670205145365,-4435.490808018671,-1539.3363461369127,938.545435962577,-1662.3105898400233,-2665.6070232734974,-986.6745570895228,3350.892143722733,3332.805103498661,-3027.080808446015,357.0524413071586,-5884.075297532176,188.17872208348714,6711.429335101358,2452.271104688856,-8572.754942880829,6741.284914253129,-4294.818789014062,4965.7365870482445,2641.0209108878175,-9123.405579504808,8660.35875990868,-2673.339629183066,-7872.519272687675,-3655.7167717484867,7238.333211137119,-2710.9496080314257,-2323.4480628879883,-2657.1248326095774,-66.87418236807997,8314.132421022916,-5109.146892241316,6793.389977541461,-8979.230811161486,3193.8384660183924,-6347.034202430508,-504.4570914517234,5723.101107319386,-8067.543485206948,7983.530478906386,-3182.4385277747047,-5032.498055915001,11131.04303833113,-7496.712749150244,2815.816413201018,537.7999735567291,2965.891767154996,3213.440003515602,-12892.287008904694,7714.440756592775,2584.2847664767883,3642.1158040857053,-8657.88214561507,4125.68821531885,-1676.166500276052,15134.676174901548,-4674.254907535024,-1101.733401846709,1161.6038920910767,-966.52886487813,3035.440319468228,-3550.835719658473,4100.260131353515,-208.75971069105915,893.5171462252782,-12037.213925451706,3885.2484940883187,6707.071460673548,-4682.280143144053,-4103.549676181004,6298.215726072751,2778.5384827116304,-6825.822912799038,-3603.0217255214575,-324.4276400032635,744.7861538344432,-9765.956050254137,12248.124519133542,-5743.505055210923,9997.430656851087,2306.699606599961,-1944.2611574751638,2937.6570651315587,-5946.318251172211,-2122.2193262499077,8840.623971897661,-4748.743116344754,4190.935283561778,-1482.023138279168,24.57877905378642,3290.679367777398,-4800.382255200824,16638.058834832507,-18098.472925984293,7425.6753582094425,1338.6571881791338,-4452.363999461228,14376.479563394725,-5329.422773998602,3730.073495343417,-9950.306074408967,7004.598266042394,3296.413269376592,-2863.793665207627,-1932.383202891116,-2040.304910240726,-2941.6845915094855,17954.230128240073,-13609.794311713025,7885.589643023085,2077.79030489683,-6959.0577575590505,-962.6464577794001,-5978.161963711022,-1541.7424007489817,8920.524906076365,-3867.293791497855,1145.0431973665118,1877.6161754246004,-4186.073935267415,-1991.3316031720526,1829.8188203667337,-1116.441111917707,3292.043824125088,-3356.6488078522775,-1618.0033736766027,7434.223470235897,7675.1619391744425,-13282.73078786905,20982.911063137304,-10996.601343219238,-7499.736644247933,13796.03919188357,-10233.696530892345,5514.113074212347,6018.626627460546,-5113.778410848261,7260.8020355811095,-3762.8853088131727,-1869.3951425340142,-6961.983963900704,7761.868183340095,6143.953661849942,-1844.0882215398588,-527.5820806262647,-1751.8938873677998,1332.2085346794943,1235.1823211542337,2348.018824193081,567.3992278830104,-3988.676764012023,-8632.758622283507,-2152.9233146227534,12898.205350484197,-6533.7572738677345,3521.037802383121,-1384.5614505240364,-4081.842872294707,-3756.0094167536736,4062.3024104389397,13760.40392908588,-6577.311265603802,7309.627584317445,-5281.994280048,2771.407085536285,-1472.5937228862185,-2368.831643788661,-4527.062904455641,1077.1065927441114,1069.7421515321425,2334.9194198318482,451.89220008101483,7141.231281635276,-5603.784253367236,3587.8654180128533,-5884.4385103531295,6235.446688230708,5500.395616294471,-3756.4299883617614,-4671.750703111656,1547.1315031239449,4925.533077034967,3334.906144143833,-63.835584757398465,-9456.33491950476,4235.215898734506,-3816.383039808314,4052.8277924164668,-7114.378558839015,11392.309197908042,-6284.531227886062,3546.6762687299342,8277.859912630025,-9682.752626155707,14990.171259794115,-6128.94067866487,-13260.195885177187,12662.613089243914,1991.9660115805607,-5111.198203421452,4966.774062582873,1304.684467817114,9120.780618711397,1729.1748371785902,-2536.5710011668557,7726.871590166356,-9448.428548703312,-2827.815141937717,2532.9520551891833,2589.798775783692,-1667.696640854366,6931.303334345502,-4734.5873380879275,-10313.210234070526,-1576.2733245231584,5826.473050867419,-10810.273546440229,-2611.9612441647523,6995.793328411726,3052.594559220217,-11079.002045489397,9922.356527068043,-14117.769896025555,8157.337428077888,-5688.368618301188,5828.663637088224,3151.0613875530403,-8816.160299562294,-2066.455201015636,5399.66752435084,-6660.866789476469,7482.895220258087,7268.100329240186,710.668293632264,-2301.011030266347,4745.755678219393,3077.0490387126697,5748.6638812012725,-6889.467853018774,1605.4460986308693,7891.4534272261735,-12150.911066341905,-4428.684707145722,8249.974687278274,-8072.2602935957875,6648.129806022173,-7279.872974789667,-3891.9829773601673,-176.11054089771721,493.5875429159553,-72.74804545041508,-9923.213684085622,5675.25525890544,-3807.479101080857,6928.4525586424015,779.8713219954307,-9299.198839703786,8841.01492440677,10232.799336814878,-6547.855901664813,-2334.161294485563,-4911.270341777062,-5442.00089314259,-1791.8558443528566,5717.739358195616,-4249.067518651618,204.1587738995767,-899.6769844212375,3791.686192449683,766.5463805721384,1647.9130733818974,-573.9882878846824,749.0663194329236,3263.299648648151,423.7374546014208,2831.402445308361,109.36599509445543,7042.055216978553,-756.8012961605601,-6267.002039008072,1868.7204791296028,9049.517177478565,-8911.2837013321,3131.850113791806,2408.1853892583576,-2582.419549832514,-10783.74748640144,2238.079944155129,10942.60217968374,-2405.0638860502427,-13502.280121622474,9416.029032565497,3632.200276277192,-6238.046417269928,5299.236732529264,-7455.6183504271185,432.5662287578611,3372.8614549064137,-14853.955007435765,9629.262866328785,4179.80969261167,2562.028319038702,-10020.694657135164,2158.857629353106,-8154.384051599412,7287.284592266701,6388.508981065051,5852.678204620996,-5742.036529520726,2062.6080374658864,1032.0748731098997,1021.1390436684529,-11660.557545814778,10536.2336697974,2364.6327691380216,417.4617583016977,6274.703044489817,-4569.936228582166,-3227.4787633705087,2878.5274934983568,-2733.1286155484063,3239.164536293092,2812.9922769725117,2615.5290921131314,6034.267944540175,-12471.004961464236,4016.3115642288617,7444.142247482041,-12032.380082420823,9411.866423204885,-5799.3550340492375,-4362.460877291416,10727.589202498666,-9177.507361382653,-1102.2026722391306,14344.607615983172,-11842.35770497006,3540.218518829034,-8267.384902177879,8118.843875244595,-5245.477073160872,-4234.122908682237,-2320.5947799491723,5371.499131807214,-7119.056237367037,3520.191676830054,-4557.895533363951,893.4578421324104,301.0009344439367,-3724.706868432234,3105.0587942921393,-11671.541074749348,15533.363171207891,-2739.8291738390103,-10507.501123792212,7184.804164879877,13075.658607120586,2367.4607074419673,566.7835075602924,-5939.5955121943125,7231.173108986779,-4927.98597184438,1784.9020657732226,8907.132765868171,-14059.8558016061,3422.9940511749346,4003.643767800407,-9745.997175026914,4061.6240943711005,-894.26438635245,-869.219912723429,-4249.533065381364,5832.801554478235,-5997.5475239695925,1043.339204066531,-5778.646834503,1061.520126166417,-5640.217938845715,-891.0761556934256,4399.962353458382,2373.318917520305,-8083.150821939187,8611.680732360448,5225.492643196482,-11342.032864867784,3731.994206355301,4251.761224619092,9516.479447181251,-11293.469175523707,-717.7663473530012,2176.8032930231443,-2916.8136730538718,2649.7743482440937,6064.824055221972,1242.0510770454528,-7147.695447769029,-7517.252952319558,7700.468135379553,-7413.393082683686,4568.251564670051,-4862.462155522448,5854.508380264892,-12222.42682130363,1952.8769837907075,4412.196783663409,4931.0095583090715,-12551.46286701099,-7887.189652078157,-1955.728377845948,13113.171279679076,-12834.331632721713,4588.852130575335,4325.572828039644,-161.0791982899465,9504.769278623331,-5010.54954557469,-5357.196248975646,7828.3705168055385,-7128.482391281382,8236.470561262187,-8292.137981747712,-2205.3290628169743,14152.019374256011,-10936.655740743101,6890.944356652865,-2815.144933890735,2196.862422852526,-2267.3348608369242,5589.834819045734,1606.0353426459199,-582.8169377930279,-3660.166092129382,3435.8965614721533,-1308.2652090864744,-2145.0758349440216,-3649.638932858407,6475.998380836253,-13807.53508405909,659.2296236633255,4567.090529118836,3849.0705026214187,4653.460880255444,-7504.397245514567,3735.2483067627036,-1518.2110796085544,1221.252523284574,8787.107212713338,-4533.885392989738,-10112.389554790978,14513.186145853315,-3194.757879790254,-1732.7612352485494,7331.315108321832,-7636.119463015403,-12837.415220898552,9641.817272912826,1793.725106527732,-2062.7480276116394,-2665.041539638914,1109.9469934149288,-7592.998588760134,6411.331368615706,-511.8911030986687,-8256.093453567804,6801.960433571989,-4510.565750665333,2870.9908323392947,-2989.5030085164803,4150.014523278278,777.3079305201416,-7299.44816128802,-3037.6808611157576,-11167.75463528838,11077.31453232617,-1984.2558485042446,-5336.429652890904,7708.208713939379,6891.025448606072,2370.2672945529416,-1753.5037619351904,-758.1343184579505,7779.938214219041,-15519.319402843737,5024.901678126522,-2400.9994711171203,5538.410600756375,1012.7625053290654,-4102.465882456084,-2187.182607836237,4746.048926745696,-6840.657755636577,8592.94669886647,-2206.4629053350363,-2210.424780913258,-484.82754952785587,-5260.677003069974,866.771751233929,-2470.051925874417,4624.205015674634,4613.7455587947825,-17640.592871966273,5618.109625235832,1516.186690607764,697.7378189076167,746.444698092613,-10212.742962309048,-2652.2393375211204,6029.676054124469,3972.1475476257583,11272.164394172116,-9529.20081289689,-1959.2999108158795,-1230.1092978811355,-7600.528836585749,-2553.303326279286,12689.959003269789,-10619.49797846159,-2137.94937674365,8612.065939627628,312.49380994256177,-2431.512103700672,649.4773389702866,1209.7700734985917,5435.594062971422,-3297.2708618587376,-2267.296727929778,5513.838986731669,-7070.396493454739,8938.017622044803,-5655.31520365431,7189.337856049538,-6611.498673536966,-327.49603562790156,-8579.834768441784,10270.368818315525,-5227.929823061975,1102.7308698330069,682.5337154104539,4151.959236502409,-3523.175722886503,3916.284405180167,5622.15780323572,-12275.12868503784,5360.431578615536,407.0865853333594,10258.573038230525,-7820.377731331169,2036.0408721526992,-6883.09089755109,11625.061938594321,-3767.929709123734,2479.379865664248,-2919.2677883158713,277.8745301236078,1200.6935336530782,-5810.6336758554235,5409.509918270193,-3234.9911487237896,1639.7496061790193,3234.607849088552,-4853.2109174312955,-850.5122287906867,4547.39952364443,1662.8864538627122,-7486.256465030429,10040.634189917875,-3778.3563533781585,-2964.3212502213964,-8846.198465435002,9567.470340441583,4680.219480152041,-3713.1219409294326,3814.0928782777873,-2270.638719375753,-8730.21089937348,5285.274979032415,-1072.3837166862704,-110.84187808593997,489.70351099245744,5152.245445361649,-605.9053654211368,5150.144846095588,-2544.9124161415048,8841.13819195776,-14869.145022287355,14697.626579718,-10090.291483615289,188.66986352376531,-6344.286215169621,1504.3872887263883,2991.4940767496564,-886.1281915463301,-8336.828750157343,8515.257395074103,1671.7407221129815,-743.8738451363595,7547.152056324933,-14480.808092100104,2370.3701381937285,-5249.197061965037,-1072.2683452985154,-3231.9282208132418,-1546.4911424126094,5319.34528205664,-1054.424190990577,-6192.964200241076,181.55352991124877,-1311.4408374011837,-2222.418826448058,-2287.42029970439,-6027.093405662046,11711.14244982907,-3949.052902420271,3257.3203458806843,-6917.256707694468,-6799.135621517692,4239.908315745315,3394.8441731605308,-9983.506933285882,8285.946730801194,-3717.565153277667,7154.255291098786,-1778.2650964750296,6642.212058025411,-3550.5328627599743,-2420.8088928683733,-3213.608880107077,-272.70429129927504,2194.628853247542,9351.868853885046,-10699.748467375684,6900.416653408669,6618.33250697926,-9063.14758467597,9696.356493873898,374.4666333505439,-381.1717902729582,-5691.715042088996,3870.3345118056336,4530.50328832487,-1283.8086315593976,-4220.75493253315,-1958.2311573328727,6074.019450740236,3162.982085141192,-13021.80233892575,-9166.087001295753,9975.34194484763,535.9039262146978,-2445.8047363126193,-5479.850507453038,-1633.2563779551722,10163.011176789945,8898.54234339853,-1170.560013449344,-5543.257332206776,2832.0452963279713,5829.49645055519,-3881.2636611567655,-1722.862785176036,2330.2165711108732,-39.49753359302609,-9868.974468737868,14173.955268131378,-1885.3803346966909,-8018.097309319012,184.5300959798967,4512.497990554099,-146.07968334153068,-7442.07690176332,3389.3596323657034,1070.0672066703585,-2017.3582529377263,8057.7573372351135,-5196.580182324184,749.5805267640874,-6346.601132354774,1191.5650087686195,9748.321731449247,-12026.813997406007,10047.567470937847,3092.9935233294887,-10462.645102844583,14914.649083766539,-5934.561158505069,7152.665940899626,-1374.7915869551916,4999.803599942196,-744.0737876649783,1122.035445804311,-6041.833408138552,11799.499844775673,999.320546188905,-17235.330446798922,20298.14989820292,-7512.637866224308,908.539583450575,-7858.631495936883,6682.296192312567,11169.210089115692,-15320.231985177792,-321.28375646481726,11717.95336208355,-7684.505173135018,11735.502973320908,4133.658452016788,-10583.678929023336,1352.2212730468036,2021.6786669351925,6133.629998368097,2554.3433777314667,-8944.485269737477,916.5188632102045,8249.788926933883,-1664.7104290570178,-9187.494138634442,4773.016741751037,4355.838758732724,-5162.417061146156,5009.84062748527,-1043.0486472994294,1117.6832521919866,-10181.235065844534,6828.148053380215,3614.68777805798,-6477.098149439694,-2817.6790169747314,-1216.1104134376471,6646.681125211252,2749.418892015454,130.72240283472158,-9447.238292277361,15562.681742736519,-5673.241336599962,5042.648519539003,-1539.01183115452,4827.4566080834775,-13298.36712875797,-4817.163523696065,1439.3306590661132,-1307.7673356400107,1189.8667936921768,-627.5083706875379,-243.05014783549063,-8185.193750119901,8561.7912961228,-6657.50176495428,-652.6129824335228,-1634.4110430865373,5098.6908925149155,4214.0075680829505,-2831.2962618061424,-4768.851981878511,10466.179422340014,-614.8954816104925,-361.70486568691877,-10252.720361183641,3347.693032359103,6785.69241709329,-1706.726300587436,3089.7027974932466,9619.165465089625,-7661.49228216064,268.9456999661155,-13005.443371083,13430.217038615132,7525.735272964953,2210.584200127028,-4477.860891210673,12455.880701126145,3154.612160240918,-2348.9368169981335,-4359.669726032942,1185.232357448254,8972.671688857949,3905.9928856782954,119.14875481558738,-7368.625665499863,7590.226243184284,-2459.6644326818346,8325.75938987064,-5991.629154616839,-5970.892882673676,3582.5230196220555,3656.72154109638,-4184.032983558599,4960.77297998663,2205.471832638944,-4233.984320771733,1147.2482249072686,-3576.0408403049314,-2767.0838769285197,2965.440639300733,3314.535143878479,4311.256073773089,1439.2150603244074,-545.8201703184031,7191.970743933619,-12472.752995546909,5252.02794733912,-6218.246166685921,1075.8693282102133,-1531.688874104589,6240.553340618882,-5759.462112085927,1219.1253062237947,-3842.6773974334005,-2541.3019466640685,5933.129981777794,1100.050123736543,-9511.830541919835,9598.976288028301,-14608.144446476432,-4158.371047689867,5377.494609184817,-7591.124974655908,5891.032690608235,1598.8324375708291,4908.193619861018,4744.881998119927,-15362.820906450606,504.0883660345239,654.2347094053298,294.53016305030076,3740.5350530738033,3794.2695425676466,-5954.17052039695,-5269.13974982466,5462.900202995739,-8123.818329230185,7299.885479669735,-14551.530394625834,-5660.194347114913,7696.345394740131,-5133.3270145092,7316.8035923889665,-8159.339645832258,-838.5686370929188,413.2735746271869,-1707.312588125454,5190.576001904506,10941.254992848983,-6935.79727187535,-2755.4921686571265,-3453.0505194570637,5576.955436114989,-1721.9072844745417,-3904.1010126545193,-1320.8127545766004,6116.9653125250015,-2087.949261934019,-4356.433213290904,7341.100663808256,643.881691421902,5538.560366452674,-34.75629576880296,495.5813887603996,-5473.031846511343,766.874141520382,1443.6450989071154,463.37146099905686,-5742.970663033093,8650.495411890046,-4640.356366402483,5848.392412702266,-4533.281552340791,7805.718101134916,-6421.3396499109895,1525.2426951400196,4461.135004624077,4357.189572093662,-327.59979323628386,-5810.206818452345,5451.502329721679,-5915.881844040324,3596.1447934025164,5762.824137639775,-274.6173860842426,15484.86440321617,-6303.308040504118,2922.036917126332,-9283.680487703332,5351.2979932550425,6951.632189950282,621.5351273003319,-1878.8452252041752,-3083.494008489197,-3382.60041663138,-2584.9206257442893,-723.2299609255933,1856.5836229027796,1535.6831298218485,-10145.484914071336,8079.305569106165,7717.030065813909,-811.0153281628686,-4777.274073908923,12280.209963286121,-6846.882375929484,2183.0175292940094,3454.4897249661935,3473.851111803954,-14200.422321444516,14629.680503225036,-267.2654775046442,6136.951697937196,-12234.571232111291,268.4429134459357,5156.346259580052,2693.3863847966595,1470.2002610480815,-9283.815032167997,-5747.215775901718,2143.2479312597025,-3895.4015472216147,-3216.9016817606375,-1.4935588999498213,966.8184727293448,3085.9377579743764,-3392.372209486021,8000.7133346128385,-13729.547696568632,3018.593669197293,3638.2016264841923,6340.524271161421,-10226.524152754868,17210.195542867583,-11660.082549169283,555.3696836011743,-6259.5259155273325,9759.576953101861,-10702.059621419618,7386.018612094033,-8054.220728788607,3867.48200091018,4611.61965920695,1285.778613383061,-3528.6656027723097,-594.7351612077262,15519.159067986382,-14057.72397823371,-4889.790580136247,5112.35051850751,7806.444832994244,-1356.0116972136375,-736.9047568585078,-68.76425475736934,8324.751153247105,-4121.150592558871,-2659.02037778805,6690.0696263870395,-8907.608003076306,-2505.1982904462,6380.298997154218,-6948.603571197226,5398.979447796777,306.1434286950107,-1826.661715333093,-8479.181218335667,-1437.3242893923732,10207.019442167519,-9015.242885464513,2442.1045932033217,-7169.857485543784,11957.483241384632,-11465.697120122493,1610.6167517179804,5787.366826606145,8078.799847490399,-7079.242049713564,-2338.6027744060675,4652.754097436773,-9240.913149148444,6313.516228941965,2404.982876079055,2054.22950312618,-9843.476908232022,1689.185383881165,-138.57976426102704,-455.6730395534993,-11707.548485219875,6940.694638032265,1038.9668254728904,-984.4779164376663,-1933.411847765994,1684.6153292746906,-10844.080300235757,10959.384151231114,979.6872557733498,-4602.299978910037,-1833.1694472379452,-4396.859968104648,-2012.1569719504892,-9343.756131634022,15410.026828657465,61.59550441137173,-8860.68046678518,-14695.614322929416,14290.729074059356,-5370.541244538518,84.56846930910906,2971.932732373757,-6077.783445842856,3567.2858900802794,-2911.4230126433768,-3888.528707739693,3941.9600930416696,-3657.7287169606584,-106.79697725357138,6506.461628439551,1715.9506340661528,-4372.328468331542,2194.0755677290886,3999.7259637542506,-613.4464859096588,-7051.52274147607,-10545.168103445721,10547.252687903652,-1547.820275547094,8440.070467372603,-9723.168816020012,139.11736910496546,3094.847057633468,-1637.9196908381418,3422.177944684163,3515.602028374022,-4587.11828733137,-7262.64946482006,16491.405581957035,1523.5724379291382,-14998.321056549303,9527.89103713114,-3654.680329963672,-8630.41561876043,2031.0369423651919,12164.76281686015,-4825.946734144781,-4182.336922813735,9555.256783010438,-3589.2644583385595,8199.521060985171,-10520.814258547925,6547.146900172057,-4696.619016074393,-1447.1277105980598,124.26806090422265,3594.2610573088295,-11424.591420024764,7669.162623372465,3376.210790193,14900.911889644565,-5844.395824673307,-9324.058839474286,-4493.935909310677,13192.049415588319,-3406.9443937165547,990.1672396434275,-12213.956050849098,6210.618630112331,3252.263977034048,-5135.082712077346,2932.08718101884,-5821.647721438333,8562.96560191463,1754.3355862890155,-8458.020582662983,5188.387189659138,-7540.440723736755,-3920.6782494248228,-9096.401496604429,14984.353102262226,-22.041434866030322,3091.3027844852913,-4887.795955505537,904.7671892657912,-7584.8557435889825,-3091.817495743654,9061.705774898473,1782.06565632686,2639.2401298384093,7135.543892204022,-14600.003735423512,4046.6291429388143,9639.793565294302,-3115.6792803365684,-3613.5860845327047,-1944.1037956455361,-2893.480844120121,19288.39064834072,-12447.369080305956,-4045.787468821852,2403.7551148316747,-5903.793679376972,-7480.363844034971,766.321000353153,-2449.455375893385,-1748.916113167758,-1773.1192940133305,7280.3049420096395,-5302.193341689154,-408.2400317180442,2114.3167187948384,-3016.072885790482,-6581.787985205471,-4931.550385462481,11628.107499907606,-7663.7846182398325,7714.051595417597,-1913.8505717124988,-7068.7352216691315,1482.071732483949,3298.7884416349193,5635.513997019929,933.5423482821406,5063.348710913695,-7507.821430215201,6329.979994617306,10357.772208500026,-2090.8606410898474,-1720.6503986738057,-1433.3839688434498,123.29136532341582,-7277.605818484647,13030.691245884227,-13946.46334250558,4999.6958846937205,-1666.8293429057605,-5668.513786555202,7985.120700581156,-6455.127704868366,800.8970266361836,-5357.463391611619,549.6894896514852,4420.65766408723,-283.1345562966301,-644.8671918705663,-6526.057744803857,7879.532649141729,-2650.6021333405474,-6177.651489090701,9540.823282851885,-3005.3290626890853,-982.7657913403488,-1435.0590250612486,-1529.573858550497,5266.125411761239,1116.7278338686278,3746.410095547757,-5191.724100035647,-10940.562788741765,3115.148999001924,-3293.038606835393,-294.3299475178802,-3215.415675834268,4644.777185630103,-2656.1934872908787,10918.519902364233,-3071.9508240574282,-10472.844430574663,5328.651965386331,-2722.3646064503323,6193.534634005128,-13769.165966983637,8494.171273445805,-5263.657343497012,13251.764916315991,-1666.852159120409,1564.3463882241654,-7763.318181865895,-1270.2207025609448,-2166.732820289001,11580.280543290053,-2685.0230341928377,-9015.52911632147,12615.162300227785,-10262.107730799615,-6565.5321767199985,6901.982258182055,4757.727573137592,-4760.264670393838,612.6643889185783,462.0736608309873,2165.2894667335113,-139.93472087936675,-6233.349896157269,22843.61027718922,-17307.309093241394,5291.864175475581,5930.795386172498,-11411.232632087665,981.3103745295989,-6343.915726955194,-3341.853103157737,2457.2109698334634,3204.7546804888448,-1430.018872334844,-3387.6290793684357,-9828.635119281957,5499.6867607172035,-3092.7278864706027,10037.797771569909,-9589.054222467073,1963.6751777131522,8591.12271370021,3999.111893506421,5925.387015654266,-4064.7071145684827,-7295.17851182956,-1775.1540238471948,-1635.4750730911705,-5276.8430963378005,7519.998448438355,-5668.335589213408,718.1366722381937,4113.175935142245,2729.0361522704357,-2067.742630701384,-6014.693981115494,3913.105777490309,4434.680994830944,-8980.541288267472,-541.9932521790345,-365.20203337526806,12399.814216708273,-7366.991157430661,2151.8344891582574,3065.806240608853,-3595.982973701032,2329.4956736811455,9205.391487300612,-9999.140168940377,-547.1788715659565,-3709.2430612658195,3063.8090478332865,1699.8679549698645,-5458.172392293996,7223.52480889564,-3044.2128787978286,-7187.701796964673,16071.33267488352,655.4348979529917,-8948.99403269937,3706.1957090083033,-3346.228593346563,1662.9733914271442,-1742.1379076845433,2971.2022724561316,845.1502855791668,-3832.3958002803183,-1826.0541663377412,3774.4280074563017,-8309.72504555694,296.69025756013235,8021.059763753359,-5559.189431881194,224.83694386688884,733.5570891971505,6686.439089494407,-5377.234983445399,-9094.874874582198,1644.68728394987,12001.439538126688,-1963.4595867979003,2045.429801801831,-7444.285201386053,3953.284465501597,-3725.125095272543,-5652.858094701378,1348.7195883340696,10686.909607235926,-8270.742833382641,-9757.916506661039,8607.398345567912,1175.8118679297243,2193.5764540674045,-3512.11626394514,7792.990350862007,-10074.887704204042,1251.9491806513367,4525.532521685345,-8833.245800162938,11385.853051051126,6460.053955130142,-14856.91270348509,9779.86499857665,6685.376792202374,102.97685066098144,-10934.265120529222,-233.75838417592394,4269.131232257973,3246.826513290274,-4543.220622354472,-601.0332462334462,6149.02219072121,300.75765066198977,-7749.534323778225,822.2653151392419,11257.35725535262,-11766.976908631133,-694.6897642896406,4654.83983573752,5595.24598140712,-11018.135977961407,2474.586351205603,-2875.387668082274,-8550.806822862647,6490.027204608648,-6147.843479626335,2203.638490619128,-5572.49939681217,-3148.777051459967,776.4393724910475,1886.0107261953024,-197.98731728206826,9911.132444169973,750.6889992410256,-13116.101713044329,3665.011694161094,4436.104680276784,-10254.445330491822,16825.11189137873,-11452.049184546775,2388.389119491039,5511.67360174604,4848.80722040192,-6763.797145492382,730.967405750405,15765.036693730326,-6928.717176518874,-7574.539858093314,3476.7753873060265,-2244.9586160171807,268.8240922183741,6049.326014471549,-221.4852331377675,-867.6969685131721,-4663.155703586368,4518.306992056959,-1345.9718070681631,-7240.55634394137,3279.8733054812374,1087.1497130221965,-4949.4848033840235,-3391.084673304701,5622.305990468762,-5882.253436298694,7711.335806783729,-19015.597576029944,13827.82023273657,-881.0687003030989,6411.019001526216,-6847.195337430179,-6433.449523160281,18226.21475845335,-4225.91966032966,2883.1289735304804,669.0297538239408,18.7770410110637,5336.135914306058,460.1512995886727,-17153.681711204306,16609.811222878747,-3149.852705427358,-6576.605410987793,7509.781030214366,-5708.850764392088,3993.885260203072,10941.360276846373,-11568.237279818393,8672.031367275673,-2592.569897896171,2899.8311970567233,-15032.063210384926,996.2348959415207,9071.447308218681,-2100.7504740821037,4305.724928149264,-15098.687094643665,2365.9176201238615,17699.601962951245,-9051.632943661578,3272.9548470172786,-5960.619059264642,-3143.6872381452436,12247.449920541414,-5619.726774557801,1350.937765082827,-1010.0666595254884,10621.264505193443,-20554.13010873907,16408.260666015136,-1113.9299560812262,4609.564739014593,5121.181957424004,-10885.047221375129,2483.811302650521,-5378.758029210722,-13645.504441996443,13407.107096406085,-4829.5645239471305,8485.16470807078,-1189.30097046335,5242.979190570414,-1214.504931885939,-3613.4754080430675,-12065.532072782993,10113.722943169525,-5331.410010142638,1574.6679116821188,12030.658800928859,-478.92853354949796,-8032.998588591855,7641.682383273775,-6501.791473555475,5702.894108797196,5021.570769534226,-10883.28984751154,3183.716037324103,-2677.186184723867,-2629.109854799269,-3718.546222684878,-8294.409595193576,5628.43445416818,13198.888299961382,-13639.100698415354,2539.940936419475,-1155.1159628603646,2818.175839022525,10838.898145761019,-10737.248409362299,-257.2507146894843,10073.835317993355,-6053.013627937082,-3524.0830393833608,-2413.934796164271,-1222.9251800098405,1119.4199017452281,-6484.013268690347,-7348.2038441176965,6428.871297153095,10910.241373397803,-3756.5847513058648,-4288.030166222725,16248.320158587529,-7343.345277911135,6497.921989479824,5887.226597916065,-9986.523986902703,4034.825480498465,-4436.068990199074,10794.004492280841,706.2702267110537,2763.9445933298375,-3935.059618104965,-1175.1698439343643,9393.562990646089,-9608.992340253419,631.4462092050776,11907.93654081676,-2634.82471547127,5185.173939214382,-2095.2000655644324,-7810.02437167643,-434.4594130440039,7546.769723021085,-2541.639485162077,-7948.2964867456185,-851.6773635943443,6874.217786887652,-93.74883434135977,-7943.714008038723,2673.7402752202843,8806.455570594662,-12625.653547737815,4547.065416799888,-13609.045358027064,16699.658803306862,-9523.141666857227,10619.933813795084,-3038.466108947522,-2797.074304576675,6563.14470803026,8151.895570965988,-4086.1474797040387,-5869.786065363332,5792.3478397101535,-10486.898564532657,4117.686261584998,5083.088646102599,-9361.160565846007,-669.1578567415382,4137.054760988564,-3593.724393336531,6086.927939917654,-3964.302983869516,817.739043605795,-1932.8785755482998,-4857.671366874835,1991.1173546960365,3796.284475841116,2341.9344986840206,-7365.955986444486,2042.558497644816,-7163.698653646906,-4544.02001836752,9233.443539308479,-8354.910485466313,2037.481948736008,-3297.3210276469354,-5995.553756456008,4313.179681789075,-7503.176019208726,3885.914837598594,2069.5353639779605,7553.978256768367,-4149.17214165642,8909.251433293586,-9870.48425720219,102.30020959484129,1440.7779048059112,-1282.8138412126125,-3833.788023414662,-126.0244046776725,13776.929356074552,-17298.427062401013,2110.1016522315012,3387.1860796999035,-1441.1183630648704,-1427.0876349179744,1081.7878182660988,2043.1598569319,-6113.284266183231,2398.655859344615,-4097.378963499851,7467.402340298594,-10305.794735440251,5646.441325877025,-1132.141393889086,2484.073343953606,-11742.486831968734,3942.6453636017854,6917.564802158566,-3047.480193868398,-451.79298587293107,-4073.1062975120662,5787.258169640223,-9772.358936336892,3886.638599770722,8638.562799432784,-1303.1074472282648,-7939.462585227447,479.7993044714404,4497.894996162094,-7583.688918967103,6770.991923326137,-1081.6425591624336,775.8529349782838,959.6208159294782,718.4448503325079,556.171690431287,2626.7182848353814,-2507.7169107237173,7901.283431901911,2592.6283594677607,-13221.537646174313,5747.316208589658,4828.255082366386,-13681.015878598137,11725.967286330759,-7500.944130831093,-1830.2062658687262,3356.8800266369403,-7084.2362419812625,9908.005300517556,-2614.1509363482696,972.2183734670706,-1427.7385616379624,1809.7366920754744,442.39898056634263,1748.5682467599836,-136.6440862854175,-790.8047310945572,6487.502708671797,-9392.848116774861,9552.913576557856,-8731.891520184125,8415.453444834297,-2514.8573908156873,253.83665020918082,11113.515918314813,-12400.949105120246,1408.9290561156058,11478.356652306991,-5128.044986691414,2192.9689479474605,-1097.0169439531157,-578.3285378417897,4631.797664206937,37.9222272350359,3688.0521784705925,2491.0033647668256,-6221.229333059285,-10290.687225402997,2827.4321860032655,10151.084247870089,-9938.296678653118,-6955.290246884455,10420.71742740772,-10446.947799061692,1784.7772463551532,5245.270651419706,-12412.35449649361,-246.59184253946893,-5342.821259859441,-3451.918859210048,8327.93992371792,9428.464522771148,1685.3659907514716,-5401.704139698579,7093.3919074834375,269.8961625978183,-3514.0606224003513,16472.460080837103,-10707.536502314697,1680.8486915567212,-3109.605900087891,-7651.011914260533,11832.868915310693,-7010.243549254697,-2369.0518780611105,-3777.3363155239585,1845.0048168737965,926.8929309667624,2490.5094652284383,1752.1565927009808,-8977.240053194431,2530.9713537467364,22011.646016957457,-12228.556872127743,-451.7938966727933,7971.78993431197,-9678.958846390793,3316.4985461499887,5668.059626007697,-3547.6673592008824,3451.0683882951666,11353.123634112977,3574.4359700973328,-5681.178470281174,-1030.9576388790188,3794.78614097401,-2588.2176017585666,-2398.157922633206,-1312.5103093353225,1750.952673684628,4850.256929881061,-6224.51058061191,10848.82041069353,-12212.10555398769,5074.285980982928,3168.215293456077,2354.7743003137175,-4581.495844319066,2736.471894396162,1722.1143331049234,1217.3278520013432,-8685.49002812561,4156.08417513307,960.3851448202535,-11276.184495127745,17624.447251614536,-9151.767879382676,-2767.4973427150967,749.4224991004387,1513.3346458315887,5733.368714698735,-3833.5301166742934,1376.8736792523193,7893.766292744166,-5278.676119443696,-8323.444191843213,12889.882507332066,-8542.97478009037,-6439.57845296231,3469.469610071884,-7139.958009912421,-3099.364473036923,4090.519097595911,-1677.022237229278,-6265.764986482512,3413.891876803806,-1450.1053383632805,4934.518050513733,-11351.124710322867,10259.32291687933,-3926.284256298076,-4778.828985422909,4712.326477785633,3099.2741774880747,-1769.4049876423867,1728.6743435329897,7977.574798711441,-5116.804576116719,488.73053347912906,7881.331918018034,-2903.234489209526,-815.1393732609824,-2008.7286778373516,9579.643018693687,-251.2931375939204,-5148.262252603049,8730.86626089547,-6032.866561055628,7221.755055209082,-11994.16818258233,-2915.7805146522587,5911.5023377866855,8297.815623250433,-6967.312061110302,176.40436859956375,11810.369617873772,-11414.885207731162,-191.03821663191593,601.1549570673328,4005.945561523188,5570.4677165938365,-11039.034744311231,1217.8054753900303,733.9193125912877,846.6951530423457,592.9038434875977,-439.8777988022221,-2268.0678923717774,5286.918549016258,-1149.1081538766355,-11707.040091049294,9831.597383112734,4373.1110909297595,-7982.613334810092,2760.0542540472975,2136.8558447674654,-3739.8069514473264,5417.347625244181,-7814.758624920177,-6293.880047174894,6441.9868937603815,6269.199825038426,-11237.81605389499,11401.275979396605,-10225.145371179598,2351.4282578614598,-3258.6726592764862,2640.9879563312525,-7584.0218619154275,1358.9081734084552,2594.9204953574636,-5480.5424523405745,-3194.9982526669382,6473.769173634875,-17334.812707193352,9124.334783333326,-899.9133518543631,2387.1698551266054,-5441.986778356289,2329.6774856437387,6326.767592444071,-2055.4027568909037,5234.120314934087,-2205.956791696497,2743.280548193062,-7636.748843796791,8285.217810110022,2733.370846654804,-2087.7847343754383,9021.036374169473,-10915.872624745136,1152.8347322370055,2092.9034030166367,5822.604741166292,3370.5576726497407,-5486.730883058272,-2735.8566500291076,2129.1330169893213,-11432.672500196984,-3282.5091896174827,2136.2245411628555,-4772.505533835356,3900.611544851295,-2284.6677794763655,1956.9661897842752,8569.374399693044,-4693.311017850952,3319.094397717627,-7304.107040943007,1562.4366191122595,-7562.47076708166,7850.476224153323,167.67517349832096,-5081.868741951882,-1445.0416138528876,-12241.717888075991,8978.23158034823,285.36255067076013,3464.549948366949,-3314.2777032121503,-5424.068874212444,19674.09402783958,-7871.145529760152,1990.9689155583537,-4169.321502929229,-1526.213220922153,-560.2879660606337,-4838.415199901078,9867.128658948719,-4433.972177354322,-9543.64989434283,9002.285055246854,6023.062817531069,-2649.0784055414306,-10554.135063418813,8700.36926749553,8440.322930986837,-21895.15720024235,7207.277343774799,1927.4582477864699,3542.584306414423,-5426.832315906081,8943.774014454002,-894.0577465322136,-7795.911835858518,4867.477250530516,-4007.3104546120567,-5697.616420978788,1860.660755641724,828.5112563947914,416.28187204462114,5795.026025941736,6448.050321257079,-3331.8702023122464,-319.28474072142444,-4538.805474197229,3446.9126880909,-1910.2723108241812,9442.61612791424,-15278.240708859368,11466.46442862191,1105.9697307305075,4335.12501542806,-11954.169717728808,6287.503789980535,-2622.2142044101156,8793.53586190354,-6594.52982035999,2040.5128795760381,9868.817717643078,-16355.029255664733,11166.393530170397,-6937.814271167816,2107.4251465089646,3547.0759362922377,-4052.360856598775,2740.124908036906,-2252.5099673151285,9883.807046684195,-2701.0021928446977,5530.969949800632,-5057.520229516053,-2366.0886328262895,9975.00965397434,-3382.2802654986317,-10694.964384236922,3626.9450846165073,5896.95238051369,4311.107327495911,-1210.7670098667122,-3246.3638693458947,-10701.133961489471,-1518.1752908269525,14841.90604144166,-9276.054978307537,8887.465064641427,621.1957135855582,-179.89644487748293,10610.954211323806,-9446.570520148041,-3684.4780391983977,-5825.655420669145,2556.848591246312,-2618.1089254816097,-5577.174079731445,5493.1126549004375,-2385.093003877491,341.5834280899144,7400.408403215356,-1196.292098975534,-4115.94241095323,2283.2835905943048,-6506.753623603034,3857.773147625956,-1062.1412892588162,-8381.79409595064,9391.628115023013,6967.785608341917,-5573.593317342871,1296.2444559550297,-2961.4893434273695,11081.415870742705,-11901.862137527727,4219.770794720781,-12701.444367056843,1281.2573429673193,15770.311369638543,-10251.968415663718,-2423.2472405462004,-818.3755866761762,2883.475468150038,-6864.604200453119,5607.75323670076,-13990.877923079284,5714.5524748334765,7361.78544281527,-828.7417242370425,-83.13458188443532,4660.337899473398,-1284.3729071066782,-8334.297366893134,-308.76275335541453,-2341.1641726512453,1384.8093760565012,-3771.411815617917,4528.8844059812955,721.3563581304948,-4096.505003092722,-1253.7086373768068,4412.921257113769,-7011.300963882701,7572.572724701104,-1737.1438923580865,-9959.014053133938,-1557.4556387827192,7978.9664583505455,1341.0506084034434,-9327.69435086842,5725.058248249779,-6714.551688551332,-400.705611792782,2294.498474669923,8285.503076838215,-7775.065106647674,-5516.132282443382,-3192.084385156135,4000.8845751685,6131.749357989344,-3521.4299471672143,5404.202699569313,-4122.4876987557245,-4537.354862254993,1622.6059994032264,2255.033497904542,3563.7352944699937,-128.84609171690119,-3680.3688606307805,3837.330822402445,1575.0221699950966,-4025.7857784058897,-3332.257609672456,-670.1465237472268,9899.383222430066,-8504.931643209746,1543.6339999907595,-1655.5332718943346,-750.1089956215426,-7852.503315078971,5067.753685974891,10853.046479984629,-4392.943366554864,-3830.452561809774,-1914.24076036055,278.6378377732567,3138.2844562309842,-2290.240597526703,-13531.554642950348,4665.711963036165,2802.028936797092,3146.994441961521,-5627.477138177803,574.4592851598042,5617.78337385148,2642.69954178607,1964.2109853777206,-14209.357729210602,11071.600144822896,2903.0933627708764,-6487.441246430416,2116.91576363339,2641.218866489377,469.2133046147845,1578.8351520244523,-2276.0615743333537,-4883.860426228145,-121.50946606052734,8002.587291819102,-7689.889117585792,-7378.916852675927,915.2896948470317,5046.6044361717695,-3260.617962393752,1146.0290288360527,-8293.254559919886,5132.413719201802,-3199.204100540692,-1850.8249283230869,2085.7270177947516,4646.432601303365,-2422.583716060737,7171.433398766294,-4596.039014027472,20324.72527804716,-17125.76794369321,8119.386065654584,-2065.20342862562,7056.278639020506,-955.8504623614235,-6963.466480241901,871.0431127839922,-4921.491360066845,-636.7671357008724,5665.020639609075,-6643.454416163148,9786.943566760434,-3190.9203282212443,491.70564545490123,-329.6433981941259,2610.3407307505454,-4278.885959750998,-444.78372979573646,-5775.3118882837925,-1928.5297475550294,2979.285673761902,-1063.633500666574,3717.77463457337,-472.6748895752144,-611.8363421298342,-4046.7365643874027,-290.7622177881123,10105.708044349518,-2167.470210308245,-3943.6323666426615,-268.51593628312855,2986.9956677080218,361.37213914567604,1642.7567228639225,-3783.373737258011,1168.8400397292537,7718.542811160394,-9036.430360208728,-2435.991999284889,1734.802203800106,3251.7451587192454,6389.608421109715,-9592.849404549737,696.9077753779835,6167.4070401552135,6157.827479819376,-14835.515682089166,7290.52241883475,-8849.647452916819,5075.085140527841,6959.804371845447,-2784.8325630567874,3021.4201031680736,-5147.642377576129,2952.637436078335,2304.5736485734133,-852.4885010245911,1757.9883766471671,-2960.4802499105954,13765.05641328802,-2789.7568161019963,-1959.80237787873,3483.493769793185,-1679.983632850575,-6566.017587958361,257.0437709291636,27.37482941655253,10899.102092212197,-5509.972222356475,-5613.543411048161,9980.33240477077,3130.1556608379483,-12181.487151404175,-2567.8595585582398,-270.81599163466535,-2577.9947077370175,3830.321714668869,4495.6731763530415,-103.14807844412194,-4612.497954334961,-15668.63669147666,1883.8990107155842,6575.6563428713835,-11656.155073014763,1099.8103901662844,1526.259967503623,4695.4093803352125,-1240.1215731356015,1299.955412605854,3102.768122784353,-11026.474292207158,-3301.604552805837,7848.410502787465,3642.6244711132854,-9523.526958634995,9938.781998243963,-6315.290761278007,3122.742032935787,-7172.7489078022445,11412.776222841281,-16296.877317887382,19756.99953069005,-5220.675875467493,-2835.1005094238626,-443.8714583997391,8211.06258335581,31.825636565374296,-9871.369901890068,8785.254498565018,-236.01443608619388,-2540.4442536808506,-9727.193813075803,11124.531674489072,-294.08783581770274,8494.059323466767,-5435.550391225585,553.4566108339832,-15396.761627510512,6359.382611369603,-268.0898909595664,2751.77999302632,5813.576804763117,7266.257090645486,-2871.022690603324,-97.60376327993755,-10802.926566966968,6902.258032240638,-2447.6773746560084,5279.569500390013,-3067.475543607839,-3984.5099379401945,-1013.1271803687217,4333.639934200742,3620.0798260180945,7255.696482705627,-2371.6603800229695,-8412.076536027722,306.2545147812765,6014.823744089578,-3816.2963367018097,9390.99967240569,-1093.9979042005475,719.8753598390228,-9308.184396156961,5872.142565049443,-4778.195832129712,4194.181745906233,-1741.6613238889802,-10492.117029411213,9291.811637132187,-2418.8323977473324,3155.1846978177955,-2592.9861176809354,374.24191253637633,1656.2819464149457,-2679.634904827888,1956.5762573731454,8891.347221338596,-17494.58695142661,2618.7315082069586,639.7940265868191,-3083.659497014585,155.34336653563994,1333.690885741594,-149.0417946895738,8183.008009993499,-12871.257176015442,12882.355445077566,-16071.138970771783,-858.9604603077422,9517.82631325283,-8659.891211872835,3142.2053233845804,-854.0222012646743,-2917.652166200938,10133.175999552977,-9846.1485555692,7159.571421084084,2040.542610827536,-10802.442145313551,-457.06319882789074,4067.316432165081,-2571.3352308042613,336.0536757540621,-2565.587014237378,9101.715672348439,-3783.9440717780158,-9870.720091974556,2114.5511413517793,7203.120009947763,2939.362223676685,-10296.827692587402,11403.645460962398,-6287.605794138551,1377.277859506214,3437.3422597442805,7473.235945120524,-4133.664072951211,-1924.5050691894278,9489.35784154531,1268.0168843646436,-8971.988705212614,1366.3675218172095,-631.048639608402,10782.40896182977,-10084.625726679906,6254.781000625875,1155.8211489679118,-2883.283864386966,6441.483435227046,769.1026724104427,-11277.287861059282,-5830.223501250601,8558.822105832298,12228.87315348975,-4222.5586789572535,942.9547310679984,-10474.183414418025,4389.41352323163,676.3648934013853,-19698.767286124305,13479.785201865765,-6304.726752203518,3405.5163649695996,-4777.756350530641,-5841.128840594115,7353.173722345141,-2568.074564399258,-4296.668031267848,1788.2075173086562,12679.847060456,-13159.15032341728,1993.1528444677067,-8332.759676270412,8962.56606335546,-4251.849177793613,7842.211009372965,-3302.053247651826,6501.777659636859,-8101.192753105656,-2522.7227518123987,1036.5080121675485,6453.27182877695,-2917.292596752485,-927.821409100519,6229.359437180981,7380.998389174379,-10615.890472208448,7910.216372385333,-283.21813926109536,7013.241550388546,-2523.4912035201387,1366.900805781425,-2422.3205594429355,-4351.315256121703,-2513.5984630810203,2023.9206713859887,-5468.726919222071,13956.525548691661,-1123.0543484123461,-9724.625261643143,-4445.370469948063,3197.158311054293,-10783.547552248807,12026.382264181384,-2422.2319013129822,-2285.72283721898,-3638.7636898473193,-3652.157711176097,4624.049375358737,5572.474157303336,-11357.577437979773,2922.1355521760984,-976.5229164809559,1056.8789242380708,2450.949805868919,5906.785514739649,-3864.5821626533616,27.353608976937977,-1587.353793739843,-5772.1407375546405,13312.74915579704,-7681.57162000421,-6224.178238450932,6665.756982314029,-2662.115699853317,-7518.118689866026,6676.607876045994,-3518.729838544864,-6358.674855213986,-2793.161904269602,8211.533864174937,-771.7984211958716,-16203.087936521466,15323.510672964978,1682.8872450930066,-14595.33020042988,537.036012713347,26332.719724573275,-20092.95743556173,-1866.7049638020844,3859.809615890099,-1737.6472598706716,5058.4278532461685,353.3643558875456,-3846.770574405777,14797.112093555426,-5333.896579658734,970.6763901672198,-2046.1548216970782,3118.49267359408,-2668.911938987754,-1789.0410885770398,8219.220747506972,-9876.37301613297,4287.654541428989,-2143.0153693464526,-1522.014258082748,-1482.1250537896512,8911.2921814856,-964.4689334197086,-6828.251982742909,-5711.004100638491,3481.403165366546,-8237.636467879058,-430.3056380144585,3158.696832076198,5998.311312574318,-3489.39040206302,-2154.2816676237253,9052.369510159628,-649.9071616556384,-9828.769886057804,8379.248678225043,968.5351346195644,-5719.974013075365,-2767.836180616692,6218.6479441068195,-5627.270803739529,5246.125046917557,-10359.34259595959,-14.210668651067099,-4788.9062019456205,15640.148986186134,-5256.159709877814,2589.697755546541,-1927.9876303518,5890.679129018831,-323.0091695101059,-928.325692586371,-2009.24449338401,7582.569298389298,-6145.339056152223,1018.5706309289106,-10123.086547614232,9779.205846638084,-10777.203670576217,10091.055913020466,11324.037071487875,-285.9656822700865,1768.676824953542,-7560.570968291457,-902.6703583780463,3571.391788834525,-2342.081685811819,-8485.450783424787,17915.952775094807,-6846.8051283485465,5648.467563959828,759.5985435930263,-1311.1914406643007,-842.857568272239,-2848.81916372256,3003.9644774365506,4063.153423678666,490.6805532387382,-6871.321254252207,5258.82367151868,1003.9099413301697,-5328.625494254617,2704.56094280298,-2044.7855952443676,5198.508727988414,3490.894717227437,855.6154997357246,-15133.512895574253,8836.024983781836,1797.2308789829497,4897.921780882208,-1763.7969068958475,-1091.9548055073217,-8119.342478712276,8140.637855054149,-4047.5837676640886,8076.220249675887,-2308.8527457380774,-3950.8813577747014,6307.55611451243,-12024.917277636694,7021.480892848902,9698.833829679987,-15896.627296464254,6016.997875487357,9179.903818529338,-9304.463095654392,2276.26221392073,-4048.467791145068,8058.684147817761,-4909.850950713601,2701.3611177087323,3180.7391972730356,-1102.72535457859,-8092.670850257569,-1152.5574035347806,409.9688747498501,