,0,1,2,3,4,5,6,7,8,9,10,11,12,13,14,15,16,17,18,19,20,21,22,23,24,25,26,27,28,29,30,31,32,33,34,35,36,37,38,39,40,41,42,43,44,45,46,47,48,49,50,51,52,53,54,55,56,57,58,59,60,61,62,63,64,65,66,67,68,69,70,71,72,73,74,75,76,77,78,79,80,81,82,83,84,85,86,87,88,89,90,91,92,93,94,95,96,97,98,99,100,101,102,103,104,105,106,107,108,109,110,111,112,113,114,115,116,117,118,119,120,121,122,123,124,125,126,127,128,129,130,131,132,133,134,135,136,137,138,139,140,141,142,143,144,145,146,147,148,149,150,151,152,153,154,155,156,157,158,159,160,161,162,163,164,165,166,167,168,169,170,171,172,173,174,175,176,177,178,179,180,181,182,183,184,185,186,187,188,189,190,191,192,193,194,195,196,197,198,199,200,201,202,203,204,205,206,207,208,209,210,211,212,213,214,215,216,217,218,219,220,221,222,223,224,225,226,227,228,229,230,231,232,233,234,235,236,237,238,239,240,241,242,243,244,245,246,247,248,249,250,251,252,253,254,255,256,257,258,259,260,261,262,263,264,265,266,267,268,269,270,271,272,273,274,275,276,277,278,279,280,281,282,283,284,285,286,287,288,289,290,291,292,293,294,295,296,297,298,299,300,301,302,303,304,305,306,307,308,309,310,311,312,313,314,315,316,317,318,319,320,321,322,323,324,325,326,327,328,329,330,331,332,333,334,335,336,337,338,339,340,341,342,343,344,345,346,347,348,349,350,351,352,353,354,355,356,357,358,359,360,361,362,363,364,365,366,367,368,369,370,371,372,373,374,375,376,377,378,379,380,381,382,383,384,385,386,387,388,389,390,391,392,393,394,395,396,397,398,399,400,401,402,403,404,405,406,407,408,409,410,411,412,413,414,415,416,417,418,419,420,421,422,423,424,425,426,427,428,429,430,431,432,433,434,435,436,437,438,439,440,441,442,443,444,445,446,447,448,449,450,451,452,453,454,455,456,457,458,459,460,461,462,463,464,465,466,467,468,469,470,471,472,473,474,475,476,477,478,479,480,481,482,483,484,485,486,487,488,489,490,491,492,493,494,495,496,497,498,499,500,501,502,503,504,505,506,507,508,509,510,511,512,513,514,515,516,517,518,519,520,521,522,523,524,525,526,527,528,529,530,531,532,533,534,535,536,537,538,539,540,541,542,543,544,545,546,547,548,549,550,551,552,553,554,555,556,557,558,559,560,561,562,563,564,565,566,567,568,569,570,571,572,573,574,575,576,577,578,579,580,581,582,583,584,585,586,587,588,589,590,591,592,593,594,595,596,597,598,599,600,601,602,603,604,605,606,607,608,609,610,611,612,613,614,615,616,617,618,619,620,621,622,623,624,625,626,627,628,629,630,631,632,633,634,635,636,637,638,639,640,641,642,643,644,645,646,647,648,649,650,651,652,653,654,655,656,657,658,659,660,661,662,663,664,665,666,667,668,669,670,671,672,673,674,675,676,677,678,679,680,681,682,683,684,685,686,687,688,689,690,691,692,693,694,695,696,697,698,699,700,701,702,703,704,705,706,707,708,709,710,711,712,713,714,715,716,717,718,719,720,721,722,723,724,725,726,727,728,729,730,731,732,733,734,735,736,737,738,739,740,741,742,743,744,745,746,747,748,749,750,751,752,753,754,755,756,757,758,759,760,761,762,763,764,765,766,767,768,769,770,771,772,773,774,775,776,777,778,779,780,781,782,783,784,785,786,787,788,789,790,791,792,793,794,795,796,797,798,799,800,801,802,803,804,805,806,807,808,809,810,811,812,813,814,815,816,817,818,819,820,821,822,823,824,825,826,827,828,829,830,831,832,833,834,835,836,837,838,839,840,841,842,843,844,845,846,847,848,849,850,851,852,853,854,855,856,857,858,859,860,861,862,863,864,865,866,867,868,869,870,871,872,873,874,875,876,877,878,879,880,881,882,883,884,885,886,887,888,889,890,891,892,893,894,895,896,897,898,899,900,901,902,903,904,905,906,907,908,909,910,911,912,913,914,915,916,917,918,919,920,921,922,923,924,925,926,927,928,929,930,931,932,933,934,935,936,937,938,939,940,941,942,943,944,945,946,947,948,949,950,951,952,953,954,955,956,957,958,959,960,961,962,963,964,965,966,967,968,969,970,971,972,973,974,975,976,977,978,979,980,981,982,983,984,985,986,987,988,989,990,991,992,993,994,995,996,997,998,999,1000,1001,1002,1003,1004,1005,1006,1007,1008,1009,1010,1011,1012,1013,1014,1015,1016,1017,1018,1019,1020,1021,1022,1023,1024,1025,1026,1027,1028,1029,1030,1031,1032,1033,1034,1035,1036,1037,1038,1039,1040,1041,1042,1043,1044,1045,1046,1047,1048,1049,1050,1051,1052,1053,1054,1055,1056,1057,1058,1059,1060,1061,1062,1063,1064,1065,1066,1067,1068,1069,1070,1071,1072,1073,1074,1075,1076,1077,1078,1079,1080,1081,1082,1083,1084,1085,1086,1087,1088,1089,1090,1091,1092,1093,1094,1095,1096,1097,1098,1099,1100,1101,1102,1103,1104,1105,1106,1107,1108,1109,1110,1111,1112,1113,1114,1115,1116,1117,1118,1119,1120,1121,1122,1123,1124,1125,1126,1127,1128,1129,1130,1131,1132,1133,1134,1135,1136,1137,1138,1139,1140,1141,1142,1143,1144,1145,1146,1147,1148,1149,1150,1151,1152,1153,1154,1155,1156,1157,1158,1159,1160,1161,1162,1163,1164,1165,1166,1167,1168,1169,1170,1171,1172,1173,1174,1175,1176,1177,1178,1179,1180,1181,1182,1183,1184,1185,1186,1187,1188,1189,1190,1191,1192,1193,1194,1195,1196,1197,1198,1199,1200,1201,1202,1203,1204,1205,1206,1207,1208,1209,1210,1211,1212,1213,1214,1215,1216,1217,1218,1219,1220,1221,1222,1223,1224,1225,1226,1227,1228,1229,1230,1231,1232,1233,1234,1235,1236,1237,1238,1239,1240,1241,1242,1243,1244,1245,1246,1247,1248,1249,1250,1251,1252,1253,1254,1255,1256,1257,1258,1259,1260,1261,1262,1263,1264,1265,1266,1267,1268,1269,1270,1271,1272,1273,1274,1275,1276,1277,1278,1279,1280,1281,1282,1283,1284,1285,1286,1287,1288,1289,1290,1291,1292,1293,1294,1295,1296,1297,1298,1299,1300,1301,1302,1303,1304,1305,1306,1307,1308,1309,1310,1311,1312,1313,1314,1315,1316,1317,1318,1319,1320,1321,1322,1323,1324,1325,1326,1327,1328,1329,1330,1331,1332,1333,1334,1335,1336,1337,1338,1339,1340,1341,1342,1343,1344,1345,1346,1347,1348,1349,1350,1351,1352,1353,1354,1355,1356,1357,1358,1359,1360,1361,1362,1363,1364,1365,1366,1367,1368,1369,1370,1371,1372,1373,1374,1375,1376,1377,1378,1379,1380,1381,1382,1383,1384,1385,1386,1387,1388,1389,1390,1391,1392,1393,1394,1395,1396,1397,1398,1399,1400,1401,1402,1403,1404,1405,1406,1407,1408,1409,1410,1411,1412,1413,1414,1415,1416,1417,1418,1419,1420,1421,1422,1423,1424,1425,1426,1427,1428,1429,1430,1431,1432,1433,1434,1435,1436,1437,1438,1439,1440,1441,1442,1443,1444,1445,1446,1447,1448,1449,1450,1451,1452,1453,1454,1455,1456,1457,1458,1459,1460,1461,1462,1463,1464,1465,1466,1467,1468,1469,1470,1471,1472,1473,1474,1475,1476,1477,1478,1479,1480,1481,1482,1483,1484,1485,1486,1487,1488,1489,1490,1491,1492,1493,1494,1495,1496,1497,1498,1499,1500,1501,1502,1503,1504,1505,1506,1507,1508,1509,1510,1511,1512,1513,1514,1515,1516,1517,1518,1519,1520,1521,1522,1523,1524,1525,1526,1527,1528,1529,1530,1531,1532,1533,1534,1535,1536,1537,1538,1539,1540,1541,1542,1543,1544,1545,1546,1547,1548,1549,1550,1551,1552,1553,1554,1555,1556,1557,1558,1559,1560,1561,1562,1563,1564,1565,1566,1567,1568,1569,1570,1571,1572,1573,1574,1575,1576,1577,1578,1579,1580,1581,1582,1583,1584,1585,1586,1587,1588,1589,1590,1591,1592,1593,1594,1595,1596,1597,1598,1599,1600,1601,1602,1603,1604,1605,1606,1607,1608,1609,1610,1611,1612,1613,1614,1615,1616,1617,1618,1619,1620,1621,1622,1623,1624,1625,1626,1627,1628,1629,1630,1631,1632,1633,1634,1635,1636,1637,1638,1639,1640,1641,1642,1643,1644,1645,1646,1647,1648,1649,1650,1651,1652,1653,1654,1655,1656,1657,1658,1659,1660,1661,1662,1663,1664,1665,1666,1667,1668,1669,1670,1671,1672,1673,1674,1675,1676,1677,1678,1679,1680,1681,1682,1683,1684,1685,1686,1687,1688,1689,1690,1691,1692,1693,1694,1695,1696,1697,1698,1699,1700,1701,1702,1703,1704,1705,1706,1707,1708,1709,1710,1711,1712,1713,1714,1715,1716,1717,1718,1719,1720,1721,1722,1723,1724,1725,1726,1727,1728,1729,1730,1731,1732,1733,1734,1735,1736,1737,1738,1739,1740,1741,1742,1743,1744,1745,1746,1747,1748,1749,1750,1751,1752,1753,1754,1755,1756,1757,1758,1759,1760,1761,1762,1763,1764,1765,1766,1767,1768,1769,1770,1771,1772,1773,1774,1775,1776,1777,1778,1779,1780,1781,1782,1783,1784,1785,1786,1787,1788,1789,1790,1791,1792,1793,1794,1795,1796,1797,1798,1799,1800,1801,1802,1803,1804,1805,1806,1807,1808,1809,1810,1811,1812,1813,1814,1815,1816,1817,1818,1819,1820,1821,1822,1823,1824,1825,1826,1827,1828,1829,1830,1831,1832,1833,1834,1835,1836,1837,1838,1839,1840,1841,1842,1843,1844,1845,1846,1847,1848,1849,1850,1851,1852,1853,1854,1855,1856,1857,1858,1859,1860,1861,1862,1863,1864,1865,1866,1867,1868,1869,1870,1871,1872,1873,1874,1875,1876,1877,1878,1879,1880,1881,1882,1883,1884,1885,1886,1887,1888,1889,1890,1891,1892,1893,1894,1895,1896,1897,1898,1899,1900,1901,1902,1903,1904,1905,1906,1907,1908,1909,1910,1911,1912,1913,1914,1915,1916,1917,1918,1919,1920,1921,1922,1923,1924,1925,1926,1927,1928,1929,1930,1931,1932,1933,1934,1935,1936,1937,1938,1939,1940,1941,1942,1943,1944,1945,1946,1947,1948,1949,1950,1951,1952,1953,1954,1955,1956,1957,1958,1959,1960,1961,1962,1963,1964,1965,1966,1967,1968,1969,1970,1971,1972,1973,1974,1975,1976,1977,1978,1979,1980,1981,1982,1983,1984,1985,1986,1987,1988,1989,1990,1991,1992,1993,1994,1995,1996,1997,1998,1999,2000,2001,2002,2003,2004,2005,2006,2007,2008,2009,2010,2011,2012,2013,2014,2015,2016,2017,2018,2019,2020,2021,2022,2023,2024,2025,2026,2027,2028,2029,2030,2031,2032,2033,2034,2035,2036,2037,2038,2039,2040,2041,2042,2043,2044,2045,2046,2047,2048,2049,2050,2051,2052,2053,2054,2055,2056,2057,2058,2059,2060,2061,2062,2063,2064,2065,2066,2067,2068,2069,2070,2071,2072,2073,2074,2075,2076,2077,2078,2079,2080,2081,2082,2083,2084,2085,2086,2087,2088,2089,2090,2091,2092,2093,2094,2095,2096,2097,2098,2099,2100,2101,2102,2103,2104,2105,2106,2107,2108,2109,2110,2111,2112,2113,2114,2115,2116,2117,2118,2119,2120,2121,2122,2123,2124,2125,2126,2127,2128,2129,2130,2131,2132,2133,2134,2135,2136,2137,2138,2139,2140,2141,2142,2143,2144,2145,2146,2147,2148,2149,2150,2151,2152,2153,2154,2155,2156,2157,2158,2159,2160,2161,2162,2163,2164,2165,2166,2167,2168,2169,2170,2171,2172,2173,2174,2175,2176,2177,2178,2179,2180,2181,2182,2183,2184,2185,2186,2187,2188,2189,2190,2191,2192,2193,2194,2195,2196,2197,2198,2199,2200,2201,2202,2203,2204,2205,2206,2207,2208,2209,2210,2211,2212,2213,2214,2215,2216,2217,2218,2219,2220,2221,2222,2223,2224,2225,2226,2227,2228,2229,2230,2231,2232,2233,2234,2235,2236,2237,2238,2239,2240,2241,2242,2243,2244,2245,2246,2247,2248,2249,2250,2251,2252,2253,2254,2255,2256,2257,2258,2259,2260,2261,2262,2263,2264,2265,2266,2267,2268,2269,2270,2271,2272,2273,2274,2275,2276,2277,2278,2279,2280,2281,2282,2283,2284,2285,2286,2287,2288,2289,2290,2291,2292,2293,2294,2295,2296,2297,2298,2299,2300,2301,2302,2303,2304,2305,2306,2307,2308,2309,2310,2311,2312,2313,2314,2315,2316,2317,2318,2319,2320,2321,2322,2323,2324,2325,2326,2327,2328,2329,2330,2331,2332,2333,2334,2335,2336,2337,2338,2339,2340,2341,2342,2343,2344,2345,2346,2347,2348,2349,2350,2351,2352,2353,2354,2355,2356,2357,2358,2359,2360,2361,2362,2363,2364,2365,2366,2367,2368,2369,2370,2371,2372,2373,2374,2375,2376,2377,2378,2379,2380,2381,2382,2383,2384,2385,2386,2387,2388,2389,2390,2391,2392,2393,2394,2395,2396,2397,2398,2399,2400,2401,2402,2403,2404,2405,2406,2407,2408,2409,2410,2411,2412,2413,2414,2415,2416,2417,2418,2419,2420,2421,2422,2423,2424,2425,2426,2427,2428,2429,2430,2431,2432,2433,2434,2435,2436,2437,2438,2439,2440,2441,2442,2443,2444,2445,2446,2447,2448,2449,2450,2451,2452,2453,2454,2455,2456,2457,2458,2459,2460,2461,2462,2463,2464,2465,2466,2467,2468,2469,2470,2471,2472,2473,2474,2475,2476,2477,2478,2479,2480,2481,2482,2483,2484,2485,2486,2487,2488,2489,2490,2491,2492,2493,2494,2495,2496,2497,2498,2499,2500,2501,2502,2503,2504,2505,2506,2507,2508,2509,2510,2511,2512,2513,2514,2515,2516,2517,2518,2519,2520,2521,2522,2523,2524,2525,2526,2527,2528,2529,2530,2531,2532,2533,2534,2535,2536,2537,2538,2539,2540,2541,2542,2543,2544,2545,2546,2547,2548,2549,2550,2551,2552,2553,2554,2555,2556,2557,2558,2559,2560,2561,2562,2563,2564,2565,2566,2567,2568,2569,2570,2571,2572,2573,2574,2575,2576,2577,2578,2579,2580,2581,2582,2583,2584,2585,2586,2587,2588,2589,2590,2591,2592,2593,2594,2595,2596,2597,2598,2599,2600,2601,2602,2603,2604,2605,2606,2607,2608,2609,2610,2611,2612,2613,2614,2615,2616,2617,2618,2619,2620,2621,2622,2623,2624,2625,2626,2627,2628,2629,2630,2631,2632,2633,2634,2635,2636,2637,2638,2639,2640,2641,2642,2643,2644,2645,2646,2647,2648,2649,2650,2651,2652,2653,2654,2655,2656,2657,2658,2659,2660,2661,2662,2663,2664,2665,2666,2667,2668,2669,2670,2671,2672,2673,2674,2675,2676,2677,2678,2679,2680,2681,2682,2683,2684,2685,2686,2687,2688,2689,2690,2691,2692,2693,2694,2695,2696,2697,2698,2699,2700,2701,2702,2703,2704,2705,2706,2707,2708,2709,2710,2711,2712,2713,2714,2715,2716,2717,2718,2719,2720,2721,2722,2723,2724,2725,2726,2727,2728,2729,2730,2731,2732,2733,2734,2735,2736,2737,2738,2739,2740,2741,2742,2743,2744,2745,2746,2747,2748,2749,2750,2751,2752,2753,2754,2755,2756,2757,2758,2759,2760,2761,2762,2763,2764,2765,2766,2767,2768,2769,2770,2771,2772,2773,2774,2775,2776,2777,2778,2779,2780,2781,2782,2783,2784,2785,2786,2787,2788,2789,2790,2791,2792,2793,2794,2795,2796,2797,2798,2799,2800,2801,2802,2803,2804,2805,2806,2807,2808,2809,2810,2811,2812,2813,2814,2815,2816,2817,2818,2819,2820,2821,2822,2823,2824,2825,2826,2827,2828,2829,2830,2831,2832,2833,2834,2835,2836,2837,2838,2839,2840,2841,2842,2843,2844,2845,2846,2847,2848,2849,2850,2851,2852,2853,2854,2855,2856,2857,2858,2859,2860,2861,2862,2863,2864,2865,2866,2867,2868,2869,2870,2871,2872,2873,2874,2875,2876,2877,2878,2879,2880,2881,2882,2883,2884,2885,2886,2887,2888,2889,2890,2891,2892,2893,2894,2895,2896,2897,2898,2899,2900,2901,2902,2903,2904,2905,2906,2907,2908,2909,2910,2911,2912,2913,2914,2915,2916,2917,2918,2919,2920,2921,2922,2923,2924,2925,2926,2927,2928,2929,2930,2931,2932,2933,2934,2935,2936,2937,2938,2939,2940,2941,2942,2943,2944,2945,2946,2947,2948,2949,2950,2951,2952,2953,2954,2955,2956,2957,2958,2959,2960,2961,2962,2963,2964,2965,2966,2967,2968,2969,2970,2971,2972,2973,2974,2975,2976,2977,2978,2979,2980,2981,2982,2983,2984,2985,2986,2987,2988,2989,2990,2991,2992,2993,2994,2995,2996,2997,2998,2999,3000,3001,3002,3003,3004,3005,3006,3007,3008,3009,3010,3011,3012,3013,3014,3015,3016,3017,3018,3019,3020,3021,3022,3023,3024,3025,3026,3027,3028,3029,3030,3031,3032,3033,3034,3035,3036,3037,3038,3039,3040,3041,3042,3043,3044,3045,3046,3047,3048,3049,3050,3051,3052,3053,3054,3055,3056,3057,3058,3059,3060,3061,3062,3063,3064,3065,3066,3067,3068,3069,3070,3071,3072,3073,3074,3075,3076,3077,3078,3079,3080,3081,3082,3083,3084,3085,3086,3087,3088,3089,3090,3091,3092,3093,3094,3095,3096,3097,3098,3099,3100,3101,3102,3103,3104,3105,3106,3107,3108,3109,3110,3111,3112,3113,3114,3115,3116,3117,3118,3119,3120,3121,3122,3123,3124,3125,3126,3127,3128,3129,3130,3131,3132,3133,3134,3135,3136,3137,3138,3139,3140,3141,3142,3143,3144,3145,3146,3147,3148,3149,3150,3151,3152,3153,3154,3155,3156,3157,3158,3159,3160,3161,3162,3163,3164,3165,3166,3167,3168,3169,3170,3171,3172,3173,3174,3175,3176,3177,3178,3179,3180,3181,3182,3183,3184,3185,3186,3187,3188,3189,3190,3191,3192,3193,3194,3195,3196,3197,3198,3199,3200,3201,3202,3203,3204,3205,3206,3207,3208,3209,3210,3211,3212,3213,3214,3215,3216,3217,3218,3219,3220,3221,3222,3223,3224,3225,3226,3227,3228,3229,3230,3231,3232,3233,3234,3235,3236,3237,3238,3239,3240,3241,3242,3243,3244,3245,3246,3247,3248,3249,3250,3251,3252,3253,3254,3255,3256,3257,3258,3259,3260,3261,3262,3263,3264,3265,3266,3267,3268,3269,3270,3271,3272,3273,3274,3275,3276,3277,3278,3279,3280,3281,3282,3283,3284,3285,3286,3287,3288,3289,3290,3291,3292,3293,3294,3295,3296,3297,3298,3299,3300,3301,3302,3303,3304,3305,3306,3307,3308,3309,3310,3311,3312,3313,3314,3315,3316,3317,3318,3319,3320,3321,3322,3323,3324,3325,3326,3327,3328,3329,3330,3331,3332,3333,3334,3335,3336,3337,3338,3339,3340,3341,3342,3343,3344,3345,3346,3347,3348,3349,3350,3351,3352,3353,3354,3355,3356,3357,3358,3359,3360,3361,3362,3363,3364,3365,3366,3367,3368,3369,3370,3371,3372,3373,3374,3375,3376,3377,3378,3379,3380,3381,3382,3383,3384,3385,3386,3387,3388,3389,3390,3391,3392,3393,3394,3395,3396,3397,3398,3399,3400,3401,3402,3403,3404,3405,3406,3407,3408,3409,3410,3411,3412,3413,3414,3415,3416,3417,3418,3419,3420,3421,3422,3423,3424,3425,3426,3427,3428,3429,3430,3431,3432,3433,3434,3435,3436,3437,3438,3439,3440,3441,3442,3443,3444,3445,3446,3447,3448,3449,3450,3451,3452,3453,3454,3455,3456,3457,3458,3459,3460,3461,3462,3463,3464,3465,3466,3467,3468,3469,3470,3471,3472,3473,3474,3475,3476,3477,3478,3479,3480,3481,3482,3483,3484,3485,3486,3487,3488,3489,3490,3491,3492,3493,3494,3495,3496,3497,3498,3499,3500,3501,3502,3503,3504,3505,3506,3507,3508,3509,3510,3511,3512,3513,3514,3515,3516,3517,3518,3519,3520,3521,3522,3523,3524,3525,3526,3527,3528,3529,3530,3531,3532,3533,3534,3535,3536,3537,3538,3539,3540,3541,3542,3543,3544,3545,3546,3547,3548,3549,3550,3551,3552,3553,3554,3555,3556,3557,3558,3559,3560,3561,3562,3563,3564,3565,3566,3567,3568,3569,3570,3571,3572,3573,3574,3575,3576,3577,3578,3579,3580,3581,3582,3583,3584,3585,3586,3587,3588,3589,3590,3591,3592,3593,3594,3595,3596,3597,3598,3599,3600,3601,3602,3603,3604,3605,3606,3607,3608,3609,3610,3611,3612,3613,3614,3615,3616,3617,3618,3619,3620,3621,3622,3623,3624,3625,3626,3627,3628,3629,3630,3631,3632,3633,3634,3635,3636,3637,3638,3639,3640,3641,3642,3643,3644,3645,3646,3647,3648,3649,3650,3651,3652,3653,3654,3655,3656,3657,3658,3659,3660,3661,3662,3663,3664,3665,3666,3667,3668,3669,3670,3671,3672,3673,3674,3675,3676,3677,3678,3679,3680,3681,3682,3683,3684,3685,3686,3687,3688,3689,3690,3691,3692,3693,3694,3695,3696,3697,3698,3699,3700,3701,3702,3703,3704,3705,3706,3707,3708,3709,3710,3711,3712,3713,3714,3715,3716,3717,3718,3719,3720,3721,3722,3723,3724,3725,3726,3727,3728,3729,3730,3731,3732,3733,3734,3735,3736,3737,3738,3739,3740,3741,3742,3743,3744,3745,3746,3747,3748,3749,3750,3751,3752,3753,3754,3755,3756,3757,3758,3759,3760,3761,3762,3763,3764,3765,3766,3767,3768,3769,3770,3771,3772,3773,3774,3775,3776,3777,3778,3779,3780,3781,3782,3783,3784,3785,3786,3787,3788,3789,3790,3791,3792,3793,3794,3795,3796,3797,3798,3799,3800,3801,3802,3803,3804,3805,3806,3807,3808,3809,3810,3811,3812,3813,3814,3815,3816,3817,3818,3819,3820,3821,3822,3823,3824,3825,3826,3827,3828,3829,3830,3831,3832,3833,3834,3835,3836,3837,3838,3839,3840,3841,3842,3843,3844,3845,3846,3847,3848,3849,3850,3851,3852,3853,3854,3855,3856,3857,3858,3859,3860,3861,3862,3863,3864,3865,3866,3867,3868,3869,3870,3871,3872,3873,3874,3875,3876,3877,3878,3879,3880,3881,3882,3883,3884,3885,3886,3887,3888,3889,3890,3891,3892,3893,3894,3895,3896,3897,3898,3899,3900,3901,3902,3903,3904,3905,3906,3907,3908,3909,3910,3911,3912,3913,3914,3915,3916,3917,3918,3919,3920,3921,3922,3923,3924,3925,3926,3927,3928,3929,3930,3931,3932,3933,3934,3935,3936,3937,3938,3939,3940,3941,3942,3943,3944,3945,3946,3947,3948,3949,3950,3951,3952,3953,3954,3955,3956,3957,3958,3959,3960,3961,3962,3963,3964,3965,3966,3967,3968,3969,3970,3971,3972,3973,3974,3975,3976,3977,3978,3979,3980,3981,3982,3983,3984,3985,3986,3987,3988,3989,3990,3991,3992,3993,3994,3995,3996,3997,3998,3999,4000,4001,4002,4003,4004,4005,4006,4007,4008,4009,4010,4011,4012,4013,4014,4015,4016,4017,4018,4019,4020,4021,4022,4023,4024,4025,4026,4027,4028,4029,4030,4031,4032,4033,4034,4035,4036,4037,4038,4039,4040,4041,4042,4043,4044,4045,4046,4047,4048,4049,4050,4051,4052,4053,4054,4055,4056,4057,4058,4059,4060,4061,4062,4063,4064,4065,4066,4067,4068,4069,4070,4071,4072,4073,4074,4075,4076,4077,4078,4079,4080,4081,4082,4083,4084,4085,4086,4087,4088,4089,4090,4091,4092,4093,4094,4095,4096,4097,4098,4099,4100,4101,4102,4103,4104,4105,4106,4107,4108,4109,4110,4111,4112,4113,4114,4115,4116,4117,4118,4119,4120,4121,4122,4123,4124,4125,4126,4127,4128,4129,4130,4131,4132,4133,4134,4135,4136,4137,4138,4139,4140,4141,4142,4143,4144,4145,4146,4147,4148,4149,4150,4151,4152,4153,4154,4155,4156,4157,4158,4159,4160,4161,4162,4163,4164,4165,4166,4167,4168,4169,4170,4171,4172,4173,4174,4175,4176,4177,4178,4179,4180,4181,4182,4183,4184,4185,4186,4187,4188,4189,4190,4191,4192,4193,4194,4195,4196,4197,4198,4199,4200,4201,4202,4203,4204,4205,4206,4207,4208,4209,4210,4211,4212,4213,4214,4215,4216,4217,4218,4219,4220,4221,4222,4223,4224,4225,4226,4227,4228,4229,4230,4231,4232,4233,4234,4235,4236,4237,4238,4239,4240,4241,4242,4243,4244,4245,4246,4247,4248,4249,4250,4251,4252,4253,4254,4255,4256,4257,4258,4259,4260,4261,4262,4263,4264,4265,4266,4267,4268,4269,4270,4271,4272,4273,4274,4275,4276,4277,4278,4279,4280,4281,4282,4283,4284,4285,4286,4287,4288,4289,4290,4291,4292,4293,4294,4295,4296,4297,4298,4299,4300,4301,4302,4303,4304,4305,4306,4307,4308,4309,4310,4311,4312,4313,4314,4315,4316,4317,4318,4319,4320,4321,4322,4323,4324,4325,4326,4327,4328,4329,4330,4331,4332,4333,4334,4335,4336,4337,4338,4339,4340,4341,4342,4343,4344,4345,4346,4347,4348,4349,4350,4351,4352,4353,4354,4355,4356,4357,4358,4359,4360,4361,4362,4363,4364,4365,4366,4367,4368,4369,4370,4371,4372,4373,4374,4375,4376,4377,4378,4379,4380,4381,4382,4383,4384,4385,4386,4387,4388,4389,4390,4391,4392,4393,4394,4395,4396,4397,4398,4399,4400,4401,4402,4403,4404,4405,4406,4407,4408,4409,4410,4411,4412,4413,4414,4415,4416,4417,4418,4419,4420,4421,4422,4423,4424,4425,4426,4427,4428,4429,4430,4431,4432,4433,4434,4435,4436,4437,4438,4439,4440,4441,4442,4443,4444,4445,4446,4447,4448,4449,4450,4451,4452,4453,4454,4455,4456,4457,4458,4459,4460,4461,4462,4463,4464,4465,4466,4467,4468,4469,4470,4471,4472,4473,4474,4475,4476,4477,4478,4479,4480,4481,4482,4483,4484,4485,4486,4487,4488,4489,4490,4491,4492,4493,4494,4495,4496,4497,4498,4499,4500,4501,4502,4503,4504,4505,4506,4507,4508,4509,4510,4511,4512,4513,4514,4515,4516,4517,4518,4519,4520,4521,4522,4523,4524,4525,4526,4527,4528,4529,4530,4531,4532,4533,4534,4535,4536,4537,4538,4539,4540,4541,4542,4543,4544,4545,4546,4547,4548,4549,4550,4551,4552,4553,4554,4555,4556,4557,4558,4559,4560,4561,4562,4563,4564,4565,4566,4567,4568,4569,4570,4571,4572,4573,4574,4575,4576,4577,4578,4579,4580,4581,4582,4583,4584,4585,4586,4587,4588,4589,4590,4591,4592,4593,4594,4595,4596,4597,4598,4599,4600,4601,4602,4603,4604,4605,4606,4607,4608,4609,4610,4611,4612,4613,4614,4615,4616,4617,4618,4619,4620,4621,4622,4623,4624,4625,4626,4627,4628,4629,4630,4631,4632,4633,4634,4635,4636,4637,4638,4639,4640,4641,4642,4643,4644,4645,4646,4647,4648,4649,4650,4651,4652,4653,4654,4655,4656,4657,4658,4659,4660,4661,4662,4663,4664,4665,4666,4667,4668,4669,4670,4671,4672,4673,4674,4675,4676,4677,4678,4679,4680,4681,4682,4683,4684,4685,4686,4687,4688,4689,4690,4691,4692,4693,4694,4695,4696,4697,4698,4699,4700,4701,4702,4703,4704,4705,4706,4707,4708,4709,4710,4711,4712,4713,4714,4715,4716,4717,4718,4719,4720,4721,4722,4723,4724,4725,4726,4727,4728,4729,4730,4731,4732,4733,4734,4735,4736,4737,4738,4739,4740,4741,4742,4743,4744,4745,4746,4747,4748,4749,4750,4751,4752,4753,4754,4755,4756,4757,4758,4759,4760,4761,4762,4763,4764,4765,4766,4767,4768,4769,4770,4771,4772,4773,4774,4775,4776,4777,4778,4779,4780,4781,4782,4783,4784,4785,4786,4787,4788,4789,4790,4791,4792,4793,4794,4795,4796,4797,4798,4799,4800,4801,4802,4803,4804,4805,4806,4807,4808,4809,4810,4811,4812,4813,4814,4815,4816,4817,4818,4819,4820,4821,4822,4823,4824,4825,4826,4827,4828,4829,4830,4831,4832,4833,4834,4835,4836,4837,4838,4839,4840,4841,4842,4843,4844,4845,4846,4847,4848,4849,4850,4851,4852,4853,4854,4855,4856,4857,4858,4859,4860,4861,4862,4863,4864,4865,4866,4867,4868,4869,4870,4871,4872,4873,4874,4875,4876,4877,4878,4879,4880,4881,4882,4883,4884,4885,4886,4887,4888,4889,4890,4891,4892,4893,4894,4895,4896,4897,4898,4899,4900,4901,4902,4903,4904,4905,4906,4907,4908,4909,4910,4911,4912,4913,4914,4915,4916,4917,4918,4919,4920,4921,4922,4923,4924,4925,4926,4927,4928,4929,4930,4931,4932,4933,4934,4935,4936,4937,4938,4939,4940,4941,4942,4943,4944,4945,4946,4947,4948,4949,4950,4951,4952,4953,4954,4955,4956,4957,4958,4959,4960,4961,4962,4963,4964,4965,4966,4967,4968,4969,4970,4971,4972,4973,4974,4975,4976,4977,4978,4979,4980,4981,4982,4983,4984,4985,4986,4987,4988,4989,4990,4991,4992,4993,4994,4995,4996,4997,4998,4999,5000,5001,5002,5003,5004,5005,5006,5007,5008,5009,5010,5011,5012,5013,5014,5015,5016,5017,5018,5019,5020,5021,5022,5023,5024,5025,5026,5027,5028,5029,5030,5031,5032,5033,5034,5035,5036,5037,5038,5039,5040,5041,5042,5043,5044,5045,5046,5047,5048,5049,5050,5051,5052,5053,5054,5055,5056,5057,5058,5059,5060,5061,5062,5063,5064,5065,5066,5067,5068,5069,5070,5071,5072,5073,5074,5075,5076,5077,5078,5079,5080,5081,5082,5083,5084,5085,5086,5087,5088,5089,5090,5091,5092,5093,5094,5095,5096,5097,5098,5099,5100,5101,5102,5103,5104,5105,5106,5107,5108,5109,5110,5111,5112,5113,5114,5115,5116,5117,5118,5119,5120,5121,5122,5123,5124,5125,5126,5127,5128,5129,5130,5131,5132,5133,5134,5135,5136,5137,5138,5139,5140,5141,5142,5143,5144,5145,5146,5147,5148,5149,5150,5151,5152,5153,5154,5155,5156,5157,5158,5159,5160,5161,5162,5163,5164,5165,5166,5167,5168,5169,5170,5171,5172,5173,5174,5175,5176,5177,5178,5179,5180,5181,5182,5183,5184,5185,5186,5187,5188,5189,5190,5191,5192,5193,5194,5195,5196,5197,5198,5199,5200,5201,5202,5203,5204,5205,5206,5207,5208,5209,5210,5211,5212,5213,5214,5215,5216,5217,5218,5219,5220,5221,5222,5223,5224,5225,5226,5227,5228,5229,5230,5231,5232,5233,5234,5235,5236,5237,5238,5239,5240,5241,5242,5243,5244,5245,5246,5247,5248,5249,5250,5251,5252,5253,5254,5255,5256,5257,5258,5259,5260,5261,5262,5263,5264,5265,5266,5267,5268,5269,5270,5271,5272,5273,5274,5275,5276,5277,5278,5279,5280,5281,5282,5283,5284,5285,5286,5287,5288,5289,5290,5291,5292,5293,5294,5295,5296,5297,5298,5299,5300,5301,5302,5303,5304,5305,5306,5307,5308,5309,5310,5311,5312,5313,5314,5315,5316,5317,5318,5319,5320,5321,5322,5323,5324,5325,5326,5327,5328,5329,5330,5331,5332,5333,5334,5335,5336,5337,5338,5339,5340,5341,5342,5343,5344,5345,5346,5347,5348,5349,5350,5351,5352,5353,5354,5355,5356,5357,5358,5359,5360,5361,5362,5363,5364,5365,5366,5367,5368,5369,5370,5371,5372,5373,5374,5375,5376,5377,5378,5379,5380,5381,5382,5383,5384,5385,5386,5387,5388,5389,5390,5391,5392,5393,5394,5395,5396,5397,5398,5399,5400,5401,5402,5403,5404,5405,5406,5407,5408,5409,5410,5411,5412,5413,5414,5415,5416,5417,5418,5419,5420,5421,5422,5423,5424,5425,5426,5427,5428,5429,5430,5431,5432,5433,5434,5435,5436,5437,5438,5439,5440,5441,5442,5443,5444,5445,5446,5447,5448,5449,5450,5451,5452,5453,5454,5455,5456,5457,5458,5459,5460,5461,5462,5463,5464,5465,5466,5467,5468,5469,5470,5471,5472,5473,5474,5475,5476,5477,5478,5479,5480,5481,5482,5483,5484,5485,5486,5487,5488,5489,5490,5491,5492,5493,5494,5495,5496,5497,5498,5499,5500,5501,5502,5503,5504,5505,5506,5507,5508,5509,5510,5511,5512,5513,5514,5515,5516,5517,5518,5519,5520,5521,5522,5523,5524,5525,5526,5527,5528,5529,5530,5531,5532,5533,5534,5535,5536,5537,5538,5539,5540,5541,5542,5543,5544,5545,5546,5547,5548,5549,5550,5551,5552,5553,5554,5555,5556,5557,5558,5559,5560,5561,5562,5563,5564,5565,5566,5567,5568,5569,5570,5571,5572,5573,5574,5575,5576,5577,5578,5579,5580,5581,5582,5583,5584,5585,5586,5587,5588,5589,5590,5591,5592,5593,5594,5595,5596,5597,5598,5599,5600,5601,5602,5603,5604,5605,5606,5607,5608,5609,5610,5611,5612,5613,5614,5615,5616,5617,5618,5619,5620,5621,5622,5623,5624,5625,5626,5627,5628,5629,5630,5631,5632,5633,5634,5635,5636,5637,5638,5639,5640,5641,5642,5643,5644,5645,5646,5647,5648,5649,5650,5651,5652,5653,5654,5655,5656,5657,5658,5659,5660,5661,5662,5663,5664,5665,5666,5667,5668,5669,5670,5671,5672,5673,5674,5675,5676,5677,5678,5679,5680,5681,5682,5683,5684,5685,5686,5687,5688,5689,5690,5691,5692,5693,5694,5695,5696,5697,5698,5699,5700,5701,5702,5703,5704,5705,5706,5707,5708,5709,5710,5711,5712,5713,5714,5715,5716,5717,5718,5719,5720,5721,5722,5723,5724,5725,5726,5727,5728,5729,5730,5731,5732,5733,5734,5735,5736,5737,5738,5739,5740,5741,5742,5743,5744,5745,5746,5747,5748,5749,5750,5751,5752,5753,5754,5755,5756,5757,5758,5759,5760,5761,5762,5763,5764,5765,5766,5767,5768,5769,5770,5771,5772,5773,5774,5775,5776,5777,5778,5779,5780,5781,5782,5783,5784,5785,5786,5787,5788,5789,5790,5791,5792,5793,5794,5795,5796,5797,5798,5799,5800,5801,5802,5803,5804,5805,5806,5807,5808,5809,5810,5811,5812,5813,5814,5815,5816,5817,5818,5819,5820,5821,5822,5823,5824,5825,5826,5827,5828,5829,5830,5831,5832,5833,5834,5835,5836,5837,5838,5839,5840,5841,5842,5843,5844,5845,5846,5847,5848,5849,5850,5851,5852,5853,5854,5855,5856,5857,5858,5859,5860,5861,5862,5863,5864,5865,5866,5867,5868,5869,5870,5871,5872,5873,5874,5875,5876,5877,5878,5879,5880,5881,5882,5883,5884,5885,5886,5887,5888,5889,5890,5891,5892,5893,5894,5895,5896,5897,5898,5899,5900,5901,5902,5903,5904,5905,5906,5907,5908,5909,5910,5911,5912,5913,5914,5915,5916,5917,5918,5919,5920,5921,5922,5923,5924,5925,5926,5927,5928,5929,5930,5931,5932,5933,5934,5935,5936,5937,5938,5939,5940,5941,5942,5943,5944,5945,5946,5947,5948,5949,5950,5951,5952,5953,5954,5955,5956,5957,5958,5959,5960,5961,5962,5963,5964,5965,5966,5967,5968,5969,5970,5971,5972,5973,5974,5975,5976,5977,5978,5979,5980,5981,5982,5983,5984,5985,5986,5987,5988,5989,5990,5991,5992,5993,5994,5995,5996,5997,5998,5999,6000,6001,6002,6003,6004,6005,6006,6007,6008,6009,6010,6011,6012,6013,6014,6015,6016,6017,6018,6019,6020,6021,6022,6023,6024,6025,6026,6027,6028,6029,6030,6031,6032,6033,6034,6035,6036,6037,6038,6039,6040,6041,6042,6043,6044,6045,6046,6047,6048,6049,6050,6051,6052,6053,6054,6055,6056,6057,6058,6059,6060,6061,6062,6063,6064,6065,6066,6067,6068,6069,6070,6071,6072,6073,6074,6075,6076,6077,6078,6079,6080,6081,6082,6083,6084,6085,6086,6087,6088,6089,6090,6091,6092,6093,6094,6095,6096,6097,6098,6099,6100,6101,6102,6103,6104,6105,6106,6107,6108,6109,6110,6111,6112,6113,6114,6115,6116,6117,6118,6119,6120,6121,6122,6123,6124,6125,6126,6127,6128,6129,6130,6131,6132,6133,6134,6135,6136,6137,6138,6139,6140,6141,6142,6143,6144,6145,6146,6147,6148,6149,6150,6151,6152,6153,6154,6155,6156,6157,6158,6159,6160,6161,6162,6163,6164,6165,6166,6167,6168,6169,6170,6171,6172,6173,6174,6175,6176,6177,6178,6179,6180,6181,6182,6183,6184,6185,6186,6187,6188,6189,6190,6191,6192,6193,6194,6195,6196,6197,6198,6199,6200,6201,6202,6203,6204,6205,6206,6207,6208,6209,6210,6211,6212,6213,6214,6215,6216,6217,6218,6219,6220,6221,6222,6223,6224,6225,6226,6227,6228,6229,6230,6231,6232,6233,6234,6235,6236,6237,6238,6239,6240,6241,6242,6243,6244,6245,6246,6247,6248,6249,6250,6251,6252,6253,6254,6255,6256,6257,6258,6259,6260,6261,6262,6263,6264,6265,6266,6267,6268,6269,6270,6271,6272,6273,6274,6275,6276,6277,6278,6279,6280,6281,6282,6283,6284,6285,6286,6287,6288,6289,6290,6291,6292,6293,6294,6295,6296,6297,6298,6299,6300,6301,6302,6303,6304,6305,6306,6307,6308,6309,6310,6311,6312,6313,6314,6315,6316,6317,6318,6319,6320,6321,6322,6323,6324,6325,6326,6327,6328,6329,6330,6331,6332,6333,6334,6335,6336,6337,6338,6339,6340,6341,6342,6343,6344,6345,6346,6347,6348,6349,6350,6351,6352,6353,6354,6355,6356,6357,6358,6359,6360,6361,6362,6363,6364,6365,6366,6367,6368,6369,6370,6371,6372,6373,6374,6375,6376,6377,6378,6379,6380,6381,6382,6383,6384,6385,6386,6387,6388,6389,6390,6391,6392,6393,6394,6395,6396,6397,6398,6399,6400,6401,6402,6403,6404,6405,6406,6407,6408,6409,6410,6411,6412,6413,6414,6415,6416,6417,6418,6419,6420,6421,6422,6423,6424,6425,6426,6427,6428,6429,6430,6431,6432,6433,6434,6435,6436,6437,6438,6439,6440,6441,6442,6443,6444,6445,6446,6447,6448,6449,6450,6451,6452,6453,6454,6455,6456,6457,6458,6459,6460,6461,6462,6463,6464,6465,6466,6467,6468,6469,6470,6471,6472,6473,6474,6475,6476,6477,6478,6479,6480,6481,6482,6483,6484,6485,6486,6487,6488,6489,6490,6491,6492,6493,6494,6495,6496,6497,6498,6499,6500,6501,6502,6503,6504,6505,6506,6507,6508,6509,6510,6511,6512,6513,6514,6515,6516,6517,6518,6519,6520,6521,6522,6523,6524,6525,6526,6527,6528,6529,6530,6531,6532,6533,6534,6535,6536,6537,6538,6539,6540,6541,6542,6543,6544,6545,6546,6547,6548,6549,6550,6551,6552,6553,6554,6555,6556,6557,6558,6559,6560,6561,6562,6563,6564,6565,6566,6567,6568,6569,6570,6571,6572,6573,6574,6575,6576,6577,6578,6579,6580,6581,6582,6583,6584,6585,6586,6587,6588,6589,6590,6591,6592,6593,6594,6595,6596,6597,6598,6599,6600,6601,6602,6603,6604,6605,6606,6607,6608,6609,6610,6611,6612,6613,6614,6615,6616,6617,6618,6619,6620,6621,6622,6623,6624,6625,6626,6627,6628,6629,6630,6631,6632,6633,6634,6635,6636,6637,6638,6639,6640,6641,6642,6643,6644,6645,6646,6647,6648,6649,6650,6651,6652,6653,6654,6655,6656,6657,6658,6659,6660,6661,6662,6663,6664,6665,6666,6667,6668,6669,6670,6671,6672,6673,6674,6675,6676,6677,6678,6679,6680,6681,6682,6683,6684,6685,6686,6687,6688,6689,6690,6691,6692,6693,6694,6695,6696,6697,6698,6699,6700,6701,6702,6703,6704,6705,6706,6707,6708,6709,6710,6711,6712,6713,6714,6715,6716,6717,6718,6719,6720,6721,6722,6723,6724,6725,6726,6727,6728,6729,6730,6731,6732,6733,6734,6735,6736,6737,6738,6739,6740,6741,6742,6743,6744,6745,6746,6747,6748,6749,6750,6751,6752,6753,6754,6755,6756,6757,6758,6759,6760,6761,6762,6763,6764,6765,6766,6767,6768,6769,6770,6771,6772,6773,6774,6775,6776,6777,6778,6779,6780,6781,6782,6783,6784,6785,6786,6787,6788,6789,6790,6791,6792,6793,6794,6795,6796,6797,6798,6799,6800,6801,6802,6803,6804,6805,6806,6807,6808,6809,6810,6811,6812,6813,6814,6815,6816,6817,6818,6819,6820,6821,6822,6823,6824,6825,6826,6827,6828,6829,6830,6831,6832,6833,6834,6835,6836,6837,6838,6839,6840,6841,6842,6843,6844,6845,6846,6847,6848,6849,6850,6851,6852,6853,6854,6855,6856,6857,6858,6859,6860,6861,6862,6863,6864,6865,6866,6867,6868,6869,6870,6871,6872,6873,6874,6875,6876,6877,6878,6879,6880,6881,6882,6883,6884,6885,6886,6887,6888,6889,6890,6891,6892,6893,6894,6895,6896,6897,6898,6899,6900,6901,6902,6903,6904,6905,6906,6907,6908,6909,6910,6911,6912,6913,6914,6915,6916,6917,6918,6919,6920,6921,6922,6923,6924,6925,6926,6927,6928,6929,6930,6931,6932,6933,6934,6935,6936,6937,6938,6939,6940,6941,6942,6943,6944,6945,6946,6947,6948,6949,6950,6951,6952,6953,6954,6955,6956,6957,6958,6959,6960,6961,6962,6963,6964,6965,6966,6967,6968,6969,6970,6971,6972,6973,6974,6975,6976,6977,6978,6979,6980,6981,6982,6983,6984,6985,6986,6987,6988,6989,6990,6991,6992,6993,6994,6995,6996,6997,6998,6999,7000,7001,7002,7003,7004,7005,7006,7007,7008,7009,7010,7011,7012,7013,7014,7015,7016,7017,7018,7019,7020,7021,7022,7023,7024,7025,7026,7027,7028,7029,7030,7031,7032,7033,7034,7035,7036,7037,7038,7039,7040,7041,7042,7043,7044,7045,7046,7047,7048,7049,7050,7051,7052,7053,7054,7055,7056,7057,7058,7059,7060,7061,7062,7063,7064,7065,7066,7067,7068,7069,7070,7071,7072,7073,7074,7075,7076,7077,7078,7079,7080,7081,7082,7083,7084,7085,7086,7087,7088,7089,7090,7091,7092,7093,7094,7095,7096,7097,7098,7099,7100,7101,7102,7103,7104,7105,7106,7107,7108,7109,7110,7111,7112,7113,7114,7115,7116,7117,7118,7119,7120,7121,7122,7123,7124,7125,7126,7127,7128,7129,7130,7131,7132,7133,7134,7135,7136,7137,7138,7139,7140,7141,7142,7143,7144,7145,7146,7147,7148,7149,7150,7151,7152,7153,7154,7155,7156,7157,7158,7159,7160,7161,7162,7163,7164,7165,7166,7167,7168,7169,7170,7171,7172,7173,7174,7175,7176,7177,7178,7179,7180,7181,7182,7183,7184,7185,7186,7187,7188,7189,7190,7191,7192,7193,7194,7195,7196,7197,7198,7199,7200,7201,7202,7203,7204,7205,7206,7207,7208,7209,7210,7211,7212,7213,7214,7215,7216,7217,7218,7219,7220,7221,7222,7223,7224,7225,7226,7227,7228,7229,7230,7231,7232,7233,7234,7235,7236,7237,7238,7239,7240,7241,7242,7243,7244,7245,7246,7247,7248,7249,7250,7251,7252,7253,7254,7255,7256,7257,7258,7259,7260,7261,7262,7263,7264,7265,7266,7267,7268,7269,7270,7271,7272,7273,7274,7275,7276,7277,7278,7279,7280,7281,7282,7283,7284,7285,7286,7287,7288,7289,7290,7291,7292,7293,7294,7295,7296,7297,7298,7299,7300,7301,7302,7303,7304,7305,7306,7307,7308,7309,7310,7311,7312,7313,7314,7315,7316,7317,7318,7319,7320,7321,7322,7323,7324,7325,7326,7327,7328,7329,7330,7331,7332,7333,7334,7335,7336,7337,7338,7339,7340,7341,7342,7343,7344,7345,7346,7347,7348,7349,7350,7351,7352,7353,7354,7355,7356,7357,7358,7359,7360,7361,7362,7363,7364,7365,7366,7367,7368,7369,7370,7371,7372,7373,7374,7375,7376,7377,7378,7379,7380,7381,7382,7383,7384,7385,7386,7387,7388,7389,7390,7391,7392,7393,7394,7395,7396,7397,7398,7399,7400,7401,7402,7403,7404,7405,7406,7407,7408,7409,7410,7411,7412,7413,7414,7415,7416,7417,7418,7419,7420,7421,7422,7423,7424,7425,7426,7427,7428,7429,7430,7431,7432,7433,7434,7435,7436,7437,7438,7439,7440,7441,7442,7443,7444,7445,7446,7447,7448,7449,7450,7451,7452,7453,7454,7455,7456,7457,7458,7459,7460,7461,7462,7463,7464,7465,7466,7467,7468,7469,7470,7471,7472,7473,7474,7475,7476,7477,7478,7479,7480,7481,7482,7483,7484,7485,7486,7487,7488,7489,7490,7491,7492,7493,7494,7495,7496,7497,7498,7499,7500,7501,7502,7503,7504,7505,7506,7507
0,-6491.360283694212,-3759.5063504071663,3957.3626067467267,7622.277113404833,-2581.337400595037,-12436.587695732404,14660.517208651008,4701.008032082028,-24602.89413870718,25356.80720213483,-21.523159871192092,-5811.958387793437,724.6421509379045,4421.523458951592,-3978.782972366893,4347.182863996133,2113.315157583934,-2680.0743556632965,1014.2294770912827,6914.062765059756,2299.398460252022,-35236.79042385127,12881.224571518578,47950.62412345354,-22901.876930446386,-42442.99054231923,45676.9985535809,-6911.617769695742,-12922.2847072352,46630.48840643429,-29466.91900341107,-17870.091902739132,14743.938140515182,7205.605008484281,-3605.80233556844,1715.6833232326283,-7539.20260843389,5174.437927604313,740.1983636902669,-6010.360483418235,4675.112957390477,1187.7822207990687,-7377.020956181293,319.1189820421104,-1028.1357730126092,-1398.9962586285628,11230.246238102513,9076.28097853186,-20405.062045725426,-9416.820835037523,22688.531216790845,-6540.830657975469,-8067.531249792236,24860.85165186177,-17832.588442641725,-710.0029320732357,2471.118686800288,3867.1414600569788,-2534.2092747269453,7958.007726287619,-9923.029982183589,-9590.923412236974,3768.6694145442166,4065.7341350503148,588.5719289093938,-3193.4433395121887,8875.213968067204,-5423.498403898649,-1058.128365411875,6208.849043585023,-936.1074628660723,-8079.692002324771,10171.542486458009,1547.2624249787486,1446.1522422627202,-9116.767046007293,4404.770627329505,3464.716624534965,-10399.091750647849,10925.90565253229,-15679.027312169585,-156.86262199828906,14826.22619679471,-87.99805131673416,-5242.41280800319,2673.9205134252475,4.27103148243732,3814.1995102688106,-6196.33915438361,2339.839505071803,-5021.106291443478,3583.365284108043,4307.298210526808,-1132.7512979857042,-5144.263042832799,1505.5943295130585,-5397.136465774145,399.93257704096214,7528.566163107894,3415.4426671474966,-25927.937977245972,5708.34811697301,14148.673269487143,-6148.331233194701,4363.239230623563,-3551.8155534651623,-5155.686546036845,2538.6657060503767,-2022.946013669807,-3931.5015714911633,-4284.185646549509,7160.511247868413,6117.747599312865,4432.591403494635,-10224.502459203854,4119.308308640128,-4924.939290767542,-1082.336228481632,7003.837898198088,-3773.893041075996,-1958.5928833481269,-6433.535468675962,10310.856807499371,8080.97921529498,-7483.2456748902705,6919.565177129262,-3346.8719195079584,-2482.2292976689687,-833.6992236846348,8210.537843498454,-22937.336639393772,15297.884838866245,3489.026022831731,-1327.0452708822424,-7580.0470811661335,-0.6945150229820137,-107.89432074101259,395.8224584874569,2389.7288855801066,-5094.803602979783,2354.377726089735,-18868.30780107701,13991.902256792837,4319.824621975676,-1186.7016932021077,3307.0927493351155,-3175.94182127804,-2909.7737511492915,9648.502029553067,-1242.2011266552627,-17875.393970965462,4865.556400713185,5606.449370831487,4959.533540076375,731.3207160526796,-4564.489995827893,-5761.506216157738,2014.3227712849205,2090.0844886213854,3230.077685231915,-3901.2184343309373,-11174.451372813652,12427.782750453474,3380.6729603555063,1221.0022188309006,-365.2832018101061,3536.7834165878407,-5605.594008726071,508.47600879225337,1362.4472302655497,-5131.494574613851,6911.021573775062,-2471.3862422829197,2001.1268830437962,-3962.212121024999,-467.93826040089704,-3582.993350418048,251.4639687109212,-72.79101581362829,6255.779005409528,-11695.57619091813,8169.314833911639,3960.4429025039008,-7068.7724192475025,1552.224519385597,-5509.402988344847,6022.330248320474,-1488.3856112172145,1057.895653089156,-6561.489282572754,-3490.7286019684943,3731.075353011379,6251.9631099642165,-3780.7241627011385,6012.750788855309,-5803.571368917406,1161.1338449438847,1682.9504073505225,2605.0843491229634,-6879.354264917518,-14565.412121716676,13169.942597928843,6160.977967429633,1538.0456612345206,-6440.427872552322,-3086.000561004601,-105.76097412963139,-835.7533824942574,-4297.307982269809,4414.487270409446,-3050.7032120495314,-939.3727970263994,3526.4196530938543,-1236.4866454713558,400.4231384301858,3379.0016919537097,3579.5328648617538,-1026.3977648626158,-3542.2216173507713,196.3289380262173,-2453.209664833698,-1484.5116620829622,6253.277219669799,1391.404017960488,-564.2450161676365,1215.3459942295005,-2162.067132195563,7093.132093514479,-721.7284702702902,-3662.813234443763,-3019.5422883258752,2530.912644948557,3437.3305010402487,-1009.5406504219977,-5391.795382333325,-1107.0570626698714,729.7461524926081,-3652.9154630108924,2566.5951925844956,-1330.4597317557286,-1701.2177812301202,2393.4373649947224,-1155.1361625609957,7895.598506823569,-6076.608736060324,-3507.0281102789277,-769.4313289604374,-675.6866043041102,-4621.525478356883,-8719.911587783052,12125.199187602475,-4703.898233709306,-4253.922671244553,1216.6939096191936,4499.797564794838,-51.691932559545236,-5852.205076000965,8676.974100238604,6200.601875220366,-396.17576715111295,-16747.853599717568,8436.5657170345,7656.499640525382,-2070.6897203416056,-2230.885913479094,-5226.790162794054,-7028.631904323198,6513.607368531542,168.2556480150841,-5618.692472947062,-4508.238550791817,37.9584571867995,5412.853412901412,-3209.997576415848,-3251.261338734243,3573.676400273801,-4536.9783338446605,2844.856535054904,4045.729320349361,-1029.4489544948697,-14519.57610623656,7614.080143975713,-875.1370302441184,5620.967347483359,3890.1703559361963,4151.167789150656,-11580.745287888725,4631.11658399118,1190.2355657444539,-846.4520659419048,-14052.818868806575,3837.0553562434284,14405.565820128895,-4440.73314115757,-8502.916381316452,-9229.36014552437,8076.835012231267,4696.674205219558,-1981.1311238936642,3317.7167315536335,-2956.5554703575363,-4545.6758372567165,8445.685759016591,1849.341303212251,1892.734449590496,-5842.563892810723,1134.1991123989526,1079.5625942419904,-3745.9134065633907,7682.079125502991,-11914.908705105623,10199.421225151942,2579.8379124517583,2439.324237899788,-11666.740965345534,2629.4395000794666,-2266.4007149293557,10588.713780920401,-2051.1433964986045,12789.967404943098,-25508.76542705913,13871.403670740247,6327.326983799961,-914.1531702753302,-4399.540670703119,3086.8867934262257,-4363.805138281195,4404.119902251871,1042.3055166164047,-10309.194988491487,1487.291743185635,8536.148300518587,5049.804257732185,4789.894730377192,-15505.281177556948,2014.301248967311,331.45714855837304,1548.981243574543,-1464.832339789595,10315.029001201685,-11513.46422991265,-1328.4583047182923,11956.036568795224,3219.292880051461,-3203.018187138331,-9795.949308013527,9748.05427055025,7775.369747904708,-8161.966405488214,-11896.620995039719,804.17763895974,10676.892884387174,4810.933009202726,-11178.060412114342,-3351.7232555475216,3332.61703436521,1351.0086726165398,3084.402140802461,-969.806103067752,-4799.228452485819,-13477.097955430268,-1884.1821166082111,17367.013036609696,651.0039847357701,1508.4419762319312,-7462.328849941934,-2304.0386336920496,4203.716506834298,-10000.172226847113,11627.297875698405,-20926.291720388945,5793.695499101656,11658.897754440623,12416.193678310501,-17062.613184287533,-4617.075186248017,9238.925966562649,-4000.3514129348837,-7737.404254757391,6413.647372969559,-7902.45855319967,13076.487612411576,-4773.987039914006,4935.833825839847,-2190.8119637253635,1028.9709098176813,-5613.426055345905,2597.4986678744594,3729.3737875763622,4707.386050796449,-13856.986032653278,12445.36670633423,2466.1054420786154,-5146.268540666457,1584.6422279105295,-6435.710136640394,-1932.177503340582,15828.922992373067,-14194.706868828078,7808.343796879775,-18847.270401597387,7755.8624696250245,5789.557680470527,-2485.122237481536,2077.921920355957,-1801.8298132614425,-7575.263097989551,5089.166479775432,3451.2250404550728,1200.6045887849557,-14690.787333935274,10928.1451359802,11979.401470448214,-6051.152548896177,-2063.0699558523575,-1857.20892377789,768.8867509521691,3434.5382542388797,-6783.052664587149,11179.613085022604,-16239.11922100815,-6649.096332683617,16074.215275404857,395.112271788145,-7124.595442935779,-290.3400446100027,2613.8158886077263,7.474593169874933,-632.6906635603416,3190.442862554291,-11399.776564703912,4706.72693775233,10679.094099560403,-1587.192842818642,-1000.9001929189909,-2321.888344939917,-3940.7476667719952,4569.202821921747,-5641.282930853142,3843.124523750529,-6686.952075240563,-2750.1723916031706,11052.353277964534,-3777.8055552059295,7335.98628693468,7026.994299484692,-11162.201368972734,8116.084574485433,-355.83230294459196,-21648.00749037786,26755.285256547202,-18379.653590990485,21078.62668373409,-12398.187927409504,-5146.436572493789,7594.91990427529,3171.263025764025,1276.6154337565686,2740.9629377011006,-1605.3579007868916,-10865.353848011018,17973.01794185223,678.0809898976057,-4227.090534012164,-2522.4361122651094,5300.042121864738,2645.1915249521226,-8993.17755895742,2279.818736760492,-9193.725507682757,-1113.9762040962662,1183.0389928425334,12384.008285871681,-7070.049657484702,4623.251805866833,-4440.469640938013,878.7121008060451,-8959.969896644268,10080.39669846979,-4268.271952684028,-5504.297379109709,2758.8033199378347,3962.901562094721,-1167.0873355471872,-2.786016338048066,-5516.0696290762235,1410.5663055901523,-312.37048764993915,4328.2853780180885,-1594.406666340697,-3901.6895688161867,17416.0265973159,1607.969564053214,-5803.831601036779,-9244.581603824712,3461.1202425078163,-7532.760466357357,2695.16958406306,5700.231471459912,-401.1976806760098,-10513.457756409845,3099.409043777597,16293.262534775167,-1550.7900159319117,-6647.422946252236,-3708.9839017852687,9636.836885902618,-2140.939263043337,-1370.283044455122,3149.661394865215,-13907.720216463043,-2117.9744352789676,11729.278973298213,2739.8391371415146,-7621.22646121411,-4235.251900654838,5695.873623833879,-3762.0497315079497,5733.021403673238,-4411.940351430469,-13659.745653398111,9436.560155868374,6729.377094512827,-3316.7148120467878,-390.2589459909223,-6079.784347173143,8021.560701964206,-2950.808139229809,1846.2301295976101,-14044.969031399707,-2633.3509586158516,21259.827622134515,-3803.926897847695,-3136.1625970234045,-342.24755873525953,2312.0926235412358,-5206.196331993076,3728.5675426649195,1335.317242283316,-925.9533736418493,-14916.2786027761,12425.00762921056,6497.000510093133,-8544.113993678226,-7590.747031012322,5938.030968750608,349.1505931726577,3935.1375491796725,-1556.917129971257,-11881.531543886322,4262.02041315159,8763.239776253393,6043.118251928527,-7915.753001772712,-336.7536872931476,4066.4876385007315,3131.518160945146,154.82883700153624,-2743.7493462054636,129.7799121715655,-18780.30377582901,16664.273325787944,15209.645818320883,-216.01208614612005,-7678.091750199099,-7015.136232253579,5411.125510847744,9965.145221225288,-10254.326231995872,-6047.477158361751,1384.533519117997,7697.528296193817,-3925.8460395760676,6210.951007315485,-11898.704525443469,-194.51529260612654,327.3057139479869,5053.481518623879,2485.9011322420643,-1772.3351454732472,-17770.861783038355,8287.760378198307,11414.349018240813,-2294.402025074021,1231.331248087778,-5963.761411453647,-1606.663472747943,8099.765571921025,-2614.8483717680274,1478.3957545935593,-2153.1010140232993,2415.581829312936,6616.17207146937,316.2100423491229,-5687.139804005387,1748.553512819107,4922.168640995889,-6649.1894780351195,5888.1350025852935,457.1234208860839,-8860.720380435234,-2536.526671864561,7736.000834083814,2441.260364283593,-4450.7506033197415,3176.162765410375,-2683.4756895309424,-3162.4008102830157,723.894393567979,4906.288458642465,-3240.5848287795634,1902.9356905902014,6196.706719426945,-4694.296897684109,4807.478265273202,-6323.765584461987,5667.9877416921945,368.2661603833338,-1138.6587737310742,5413.49062431493,-10400.516310570192,2716.784871013072,8343.337367878412,-9263.657515196115,10808.626623979739,-6493.486222886942,-766.821060705836,-2251.8393400274017,4164.748017020684,-3995.5238513162208,-4429.118228684698,4834.179480179087,1745.338089567572,-6071.841817694682,8826.721396832167,-2318.259338258764,-3111.60275151261,-3507.650525636598,9824.199228050398,-774.7854525503213,-6284.473030178073,-8537.02239061829,6621.84017866188,2242.2787915448616,-704.7826580276227,796.5651360487906,9006.669097011685,-970.9158093546686,-5411.869052842281,-3748.9906401422004,7125.826269708263,697.7309631952561,5349.601324830371,-3553.068107598166,-2154.095461655624,4444.2290510308185,-6685.151348931213,9254.532749766104,1535.5214970789943,-1578.6828338807825,-9639.825351203712,-4427.440010586557,12717.09370132757,764.9109933807814,-3898.05359415499,7573.947565341699,-7319.2936546482215,-2509.645342744491,-1195.3097511600834,-2319.3275215965505,1188.3812503470826,3177.4521265289354,1697.109876086769,732.8581831964542,-1416.4321942045585,3341.533698804944,5174.77855171955,2743.609363732431,-7486.083251939076,6764.047757985917,-10193.591442115452,-2388.0833267736975,12626.112382765754,-3077.019443157306,-9956.27069389636,988.4045014729164,7172.363215912891,643.425494416599,7162.37719046085,-6663.665987777972,-4560.058486093722,9304.892766901286,5116.820652459042,-3181.2956990428715,-11198.501917433292,8397.908455273255,1779.6719588139356,-4747.939674296016,-1687.1958016214403,14184.527490659282,-17858.43735296423,-7344.02715245878,16349.684285570698,3322.9953961086494,-5492.661662585567,6077.685299077259,-3665.18442660392,-22.09749796195643,3310.86651801932,-8712.31556296708,-8061.5895929404705,11878.917429428931,4868.625943781648,-1880.9794230733924,-1619.498962219242,-4459.254933303476,-2432.2196923247297,7087.237366272202,2189.253527978017,-2566.300554119141,-6895.582671906734,-5181.9622106559,13263.187191295203,-2466.3406076001093,4398.735002454653,-7492.394512257501,3353.9965154060405,3969.1133563323524,-4547.055280351613,9397.108251179854,-22667.77470728694,9045.433324313255,9091.578657162696,-5043.993306197351,-5413.866021789469,-2075.1607652506223,-2941.3202713379987,2902.444907572677,2671.0493169344204,-1412.1018093637667,-5577.1899224050585,-11193.307747396226,7622.235139527001,10306.585259838153,8854.07533036718,-6707.282244073727,-5682.670302254996,3821.7663604915347,5782.069165913581,-1083.5796035266485,-14201.944718365043,7569.106770372092,3594.172096702067,4339.421165186982,-8531.454226702293,-2797.1006497647963,3775.440150808414,-50.57740166733136,-2637.5063046781347,7066.231618801665,-7018.090579772544,-7273.561224508465,7364.145394597116,8357.36492311146,-6639.540512340437,-114.98787571950787,1166.32635040727,-1144.3300493616139,-290.1465810688987,-1498.1783174972377,-8242.600201588633,4575.830642840407,287.7110277658134,6640.303230704643,-485.1346355658004,-2243.128130502113,-4478.84145092091,7970.972954390453,-2851.3165854042895,2661.215818692881,1897.6049493104217,-5371.315385910892,-2650.836877853905,3338.7804400195314,2095.04829234322,1383.8419749468992,-8939.461733050297,261.3504610357792,11386.557230094273,3289.121150166114,-10899.198842194375,-9646.107850099394,19523.170601000107,-1407.5513954208495,-4193.6772142247455,-4636.988295259188,60.866517224114794,822.8854831079573,-3764.5982940568188,9369.708029283645,-7937.647600317736,-8820.17133859376,-3920.502368444388,13709.377379078274,4517.408525553529,-7522.072905318282,-7207.410149628422,6380.889963707796,2401.255435956101,-4973.6430610522775,-1321.5688251019264,-8070.543467282467,11713.084192646953,9408.824194846395,-14764.238396400262,2122.691931127681,-731.4249818606784,1245.7362785510893,-1696.8957650855457,-2822.6617055340757,3567.657670425382,3536.7407766227493,-12637.911085095482,8359.521530740156,5160.5840291752165,-9426.668896877178,-1162.681493758458,1059.709019211816,3348.062543063765,3339.4832533962285,-500.95163497665663,-5609.513062616299,-7532.586261089381,12864.438018664128,7087.940266259214,-6582.560315560844,-4587.034773646235,6732.638228958231,-2213.05776519279,-6595.476117159742,3010.4973449503163,-2057.9089766305474,-8958.419988768906,5270.693502499048,6857.603237377836,3453.0526664874574,-9593.78926384796,134.1155007507146,2300.2511479548293,2752.870570400466,4666.946931981007,-12152.296251007287,-6241.197508846161,17307.2025784314,-4038.1593871270516,-569.3284319351625,-4022.8044608564855,4330.878230914239,4351.539005188695,-1054.562069437862,-2530.5650540662346,6817.441282295255,-7545.137059519827,963.7556896541533,4362.920770696944,-1773.4902361529541,1962.122949524718,-2682.0628528278917,-2426.526929719367,1574.7411781854314,6793.993905349701,-2198.362567456252,-1992.8847513168737,1456.1815922281967,3166.5217763723713,-5472.290213216813,5670.42495022855,-1187.8369113335114,-748.5624129201996,-5477.238524893078,5985.188013483775,-1974.735634578048,4232.757813157899,-9317.911101267047,4722.841790106743,2278.4301005997822,-396.3853363809714,5417.13648540063,-2325.5318311102196,5703.368100970587,2917.3486785613386,480.19001795191974,-9449.49003652355,-1154.225978276683,5394.294134044461,-173.04770194453604,-5284.001508775651,-4975.0313459022445,13873.446843539334,-2994.8025393396842,-1470.2417774459623,-246.114348286714,1855.7321406296996,-9155.844409296025,978.9452328366734,12796.929926508383,-5598.772274958145,-3607.215300423461,2814.6094935805704,-701.7309668468223,3649.746717665557,-2945.115595930308,2992.0848466290026,-16432.295546031342,9693.524563090225,4414.736487144801,-6538.236009016506,-7247.381617169398,4312.705363178071,6225.843033863245,-3626.2896148397763,3905.617278793434,753.2228151655461,-4414.486539476245,-5065.495578466469,7652.534797912595,-3635.9801894617144,997.8185432008012,4777.456016680933,-2812.6476326941297,-3155.3053210796324,-1359.4029450172434,6419.632260470765,-7493.581192116088,-1851.560721556208,16139.39835943759,-2475.320507293574,-5725.252073398813,-7420.470536825879,5902.842289706327,1686.5379670973023,1137.4855960852415,-3459.7283002119757,2322.8926346674975,-11824.578324968661,6313.569217475442,3428.547126456395,-4611.617079669694,-125.64247182416409,5815.3741717928415,-6003.222559975204,1965.694743148966,-4660.777779021316,-802.4125779470696,403.0700979117697,3968.5115564765915,5640.536370286372,-3781.130684564532,-6306.828771551095,7389.656778381957,3199.5256325865917,-2816.921142264775,-865.1636242261599,-3229.6162161175544,-4281.695772586994,13177.221001786831,-3382.527793075771,-5796.863029573333,-3288.1347493578187,5335.013020660792,-2135.710410095566,-2880.784728719801,5442.619514779567,-2042.4511040198602,-14078.72426339752,16736.016291143966,-1407.2145944116846,1763.4629039367812,-4648.680923807812,-2339.186533632016,6929.659519894344,-4898.85708763276,-5746.633593144802,-2261.4416148009855,-4682.23821202902,10623.368453974364,-2975.3248514988577,920.7532016711463,-5583.616601866883,4185.5670510751925,2366.235302889133,-3688.4247449942172,5289.481071329459,-12234.975981276808,7326.296261931534,5157.6279904258145,297.9426449447945,-5862.3280431288695,1297.8061447313653,-1218.3924193090174,4062.080870877182,6420.699847401743,-1617.8999247700235,-6861.443077467037,-2277.3114359601,14086.022331110224,-1348.7023310015159,-10101.002140482207,-604.8047183641451,-199.73341007196947,-221.82829340379132,3403.8746782201138,-3960.8333027350927,-6007.170630320781,2281.0939229470723,5059.902092951912,3653.184369616654,-6518.9595429229485,-10820.348281977682,10410.821115074914,5786.321032997488,-2353.716269082094,-1698.6524857208178,-2980.1449916090596,-9996.986133289607,13241.939175439393,926.051343196356,-1866.8031063838064,-289.691090244043,-988.0600682102947,-2959.5665180514525,5332.644221167503,8281.30903921678,-19926.14341571216,11810.664320489666,5729.846322062457,-8225.663479224724,3376.505843780814,-6123.72178937928,4244.401168531161,1094.3036121356956,-6720.302945344128,12790.933346903694,-8805.740400586044,-5974.713374224124,9750.001402234175,-3205.5211031532795,-3949.2201514402113,-1729.627985442029,14445.45995410983,-6285.13373427214,-874.2208743653509,13366.250640523995,-25346.15077210791,4162.816460673881,6627.335401644411,3843.1625046509503,-6621.597177194303,-3886.1424401985983,2563.833892390349,5810.812256911822,-3549.0767192581015,-8804.034484064441,8525.638160647013,-246.29419321319423,1291.3571186256113,1911.122649657203,-4225.641289195617,-1910.6497927713272,5063.809806763983,-5351.71586694871,6483.53143378649,2450.109155369244,-11550.604636961092,-1953.7923131511698,2643.351335139121,7188.119131936221,-3723.891061864357,-4320.556596349546,4302.080021556817,-2676.0138629288185,-4472.778736512416,-480.29540771896137,1304.4840886122356,1565.1106148994152,2611.7483465380997,-791.9485649417766,-1841.5489439983985,-1880.305780904349,3931.6044609452724,-5460.878664935673,7765.421778947993,-4002.736447006614,8941.661822886996,-13359.639294963526,4489.0309301042025,7525.977167363577,1550.3740008828486,-4282.361057298658,-2433.5852275182287,5250.72123339101,-1767.0871816264935,-9175.00277360346,6565.553496053191,2513.0740877132753,-7143.675642062764,8018.641692142222,494.7625974515402,10582.268861870361,-10347.017360855376,105.7355954323359,2420.6503252733855,4756.397070300698,-5679.053802349277,-15826.175258171046,12949.982001744467,7724.830319508623,-9919.475433707623,-515.3332231809902,2969.423788467229,-2356.8836977104306,-5697.717284801976,2464.8437261864,8451.38362832255,-12934.721256160024,3438.6422211691215,6042.484193551112,-3301.3031812991553,9745.196246830541,-5777.296906336888,-5831.592224646673,4696.176347846395,10670.605810560608,-1361.286733957864,-9623.175040291158,-372.0504017927215,7493.755161688237,2539.6007020707802,-3077.351591344964,-5435.5688005789125,-1697.388194907288,14283.04582755973,-12617.645277584197,-240.32025198743293,4201.544102959406,-8826.896206642105,6281.197578501572,2033.2619102476685,5912.783591415834,-3851.1411171355635,-7898.686802559536,4833.256849845546,6534.195937528881,-8778.695089754325,-3726.824051759511,3235.200540473368,4553.342603026196,-2254.548025879932,-3692.0210708274976,5751.767188291703,2465.5410354137725,1819.8275643060865,-7474.193565482263,2828.236845869635,3508.7029970711865,-9813.881691073306,6086.078500210212,-4151.482950583342,6611.713338008754,3441.5163372200846,-2674.653602585302,-52.025525698014604,3379.2777003313463,-4547.459202022867,1183.9252388855268,-2094.152424784541,-976.6873982131051,6021.391057718977,1421.2972325103876,-6322.145954633061,-2171.631054107987,8599.428764188688,-7285.205746051789,-6205.003154870123,4188.982367426444,-3614.0840480499937,-1648.0282530356128,2275.8953939991497,-1597.9089688518513,2087.0496548525703,-2930.6719914161404,1885.1854627967843,8237.793773173227,-3721.6604971873544,8144.612000768913,-19460.160726440816,5072.120189099813,7913.555012845456,801.7350887237609,-4043.3046662573342,6930.425416569367,-7374.857775664929,-2254.2203373177363,5039.228393662121,4402.810543480825,-15720.87373885027,9793.720165093247,1817.6811596165974,-2076.8069391585855,-5134.536539034732,11209.943302878977,-7873.9005282900225,-6905.876696269239,12233.750922198227,-3572.103508547699,-11234.9851479448,1488.2587442657816,14450.189278843834,-15811.487982364522,700.4579650853079,5830.429617769079,5915.024125469349,-9259.698851098387,761.3343121697045,9759.821127204286,-10234.284137052367,-701.6842479111551,4857.710035981676,598.766147433531,2709.7447158141485,-2046.4368032326647,-9762.518239749335,4347.7717669987105,8306.524417899036,2975.5446560259757,-19658.81250454229,6344.653523075591,7024.157328971046,-1168.4822219545933,-6372.221765498845,919.9540214884131,2761.3342187972094,609.4209169436925,-6608.182940003645,9311.509371032482,-376.4286666966514,-7747.026747870593,8019.2665492236265,1552.2422615586077,-5387.7675149401275,12738.769917793745,-2772.7422645347438,-4259.070274962454,2346.6334320541237,8527.136409971628,-15544.363944999965,655.0084411388763,6333.54221265784,6683.197443722701,-9026.115064793754,-26.8979097027189,-3793.310576743261,7220.295148862861,-8488.725120744388,3690.5109180532136,-2670.670862826727,-2964.034851522009,1165.9536730134375,5725.689656724666,-2341.070394114253,-3178.794113334943,-1460.4184923717962,-4148.792117369117,3458.2290758880135,1132.854486169992,-17313.064768424494,19922.473224170793,2000.0897751803311,4318.656997173345,-10491.820672163376,1553.8943386268231,4570.215013907903,-4454.14546778889,576.3131447495613,-4853.345213363838,14525.865604323202,-7395.755625517308,3451.020976655007,-991.6599275140542,2354.960011857824,-4099.178770470173,-6852.722691004374,14202.15833678993,308.8348198719479,-13932.044913821506,10048.117490674778,5039.565744090183,-619.1635168620647,6637.705363055543,-8594.033808220198,4924.844240196281,10994.094023408681,-9944.304918875336,-616.9493195251506,6774.310088145818,-6986.693263147056,1934.2107973993886,6358.579343787917,539.3047212196813,-5295.570069001057,2265.0058038569077,-4239.222662574968,2791.44409348674,5264.715322646192,-23416.723566201705,17940.092904340145,7843.42833590203,-2670.1601469515044,1131.0238967266798,-2126.332144471396,-2479.7352842597966,196.9572186658452,2920.250146983055,-1417.485762975524,12.49828649353847,-6253.957013574347,4149.847429615482,3204.270257191822,-7383.813659048351,1486.5002593189804,4529.644525179907,6756.225530902469,-3801.504383296939,-6344.827551943889,-1760.7076228465203,5148.121613461095,4386.367508236418,1480.9806407733215,-4735.053762818674,-649.6167482531617,4571.614029625328,-2992.5882543308253,9216.720056994733,-1399.348514354805,-9461.779140984765,-5581.865125302858,8419.87399237245,8449.336756195547,-7875.540335435426,-4622.255537552069,-5552.492850754217,1450.7693783934158,2366.2042788305725,11532.453761941664,-18365.130702776605,9340.166031644738,-846.5849942569733,6613.164803686145,-5663.879381051728,-5519.767231824189,-2177.2137794139444,8873.412335046687,-2744.1846342379285,3876.111413764087,-6970.08621646018,-1968.3200068153008,-2569.924434402952,14160.686139440573,-3814.6516010468085,5645.906734022186,2389.491434440486,-6048.295052469188,2775.557029123172,5009.280613196312,-13947.900731524993,731.1606475920761,9059.946694149648,4056.674161199567,-11967.342891954624,-323.31743025847993,3195.7800802581814,8031.5348880100055,-9601.128699774636,7359.621879552964,-8897.265259351701,2000.5262639889088,-657.5226734638645,3613.846852076816,791.737405225111,1792.6028855778598,-4204.5412628850145,-2798.9484823044377,11480.426925149663,-11798.464703750915,-1838.6854385637018,-6964.188496473839,4060.3594593785065,5630.032244545993,-2976.1572297655257,2080.9740016183055,-634.8517757789912,1954.7284777572331,-726.0857212713255,607.1112910174276,2370.728482730718,-5078.792020458675,1175.4937892472653,8021.649588699403,-11380.64562150477,1024.9089112993138,-4436.080438620754,8673.580165737852,103.90474762685727,-846.8739572044112,-10364.910545833452,8055.971073412942,7120.9539101496075,-8429.48816482892,-581.9462495269486,-4748.432974033961,4784.616741301719,1966.5289928003547,209.21495899505317,-4240.239462864177,-2198.835824694612,1922.6346807180662,3604.1425391796392,-9653.496651069361,11121.238578643373,-1566.2083341822756,330.69837949488806,-3034.001452501872,7851.622923909676,2126.6549940119994,-22183.298917187523,7374.598231778084,12190.22669751592,3164.5254325293436,-4038.1818017252563,-10499.077989302343,8473.73123648586,-2809.8842444692978,-1541.511240395861,5580.937028288714,-12387.176793074066,2126.246038997332,10841.87189671152,-7324.7789260726795,4284.513452405816,-18.482980015586946,-1902.6546465507636,-2217.0411401352335,3317.194624959838,-1220.715288336359,-15204.120364457267,18231.975138246784,4520.974708289739,-12248.069229146447,-1269.050143915526,501.5945109466555,8678.405863110815,-4386.343837927121,-174.4442977613476,7574.15770906833,-15419.660167943883,9538.359456164197,2449.8807144439284,-2150.8248280926514,-1090.4264821417682,3238.648889693534,-7920.245991169589,5753.905138128536,6896.705637338007,-5155.997594114582,-4942.359085567552,765.4493630976374,5438.258892694689,838.9538089041514,-5169.51867173075,-6142.045551503369,4110.673975934344,-1153.7822345063141,-792.1458380244429,-1083.9372562575334,-5647.362234357515,2801.789202715569,5154.890106226177,-3793.98582188205,-1759.8035540145886,-1218.7262487083383,-1221.5334897153957,8180.713875632632,-981.2472454231479,970.8737224844409,-2866.8718950039665,7722.308696485117,-2862.547704848321,-8161.1539952727435,8223.449773845181,-4239.6085337914665,7439.637485082545,-994.6239232002155,-7780.537690134406,6603.212999901435,-1700.6680246041658,-5480.240407315587,5525.421894153277,-5160.381599449938,9984.227942853786,-6160.793245770682,-3719.8941134992206,6468.3572254611345,-8199.764820277289,7336.577235718427,-14146.406067881499,395.6421420634582,10547.94669774074,-3236.5797528040407,2611.5733569658805,-1123.4923103507565,-2524.072302405116,5420.512973961777,-9965.801118626445,7601.396897249725,-6149.472580452649,-2920.152108205393,8823.392444096455,-2610.254807011651,-3264.1144114862477,5188.308200278531,-662.1281186414257,-519.521455848355,95.26874993169709,2908.8946110143065,-2592.528320902806,12698.638473445544,1917.0236120114057,-2283.6045838714854,2487.696876779511,-394.6898137506783,1012.4164638409056,-2883.496959113382,10877.216659770167,-10366.750070341512,-4642.589158379068,2178.270589604228,7009.096336574999,-6050.697882174901,5808.143058923803,-6075.758272646614,1161.868782745547,1682.4278212395102,897.481128355282,-7167.765256432835,2939.6612106414486,2424.569979804815,2859.299818336552,-85.45060801052179,-3728.2414418707654,5573.7086721626365,262.5740806588544,-1403.5591278757938,-1527.3570903990042,11529.923790088553,-9854.011957649938,-4488.8536740904765,12319.957579447106,-5836.518452643651,-1441.3945789091697,376.15350374509785,1239.0922988504215,7620.816179756858,-2810.204126909599,-13381.9103925284,3428.497712354047,0.8433982480256236,8432.607986584328,-8906.885219743093,-2713.201415703583,3756.1004356930853,-5098.573921379912,4363.83661699732,1001.7405015524957,-7109.584526965715,-711.7353142463567,210.84430497495907,6366.88805484435,-3320.3636933881753,-314.6884579268958,-896.2431008365498,-4897.641819580345,6004.500907161979,9673.452310355755,-15620.796464679674,-5516.280832472855,11275.710942692373,9926.237262499426,-10243.140932588087,-2559.659286633836,7076.218636518419,-6945.181698335182,-2986.3152205578767,1411.320599760965,9836.608071464003,-7294.279251525999,-1067.4254938961747,4812.373869022226,1293.8388637631608,1886.3366076289792,-4164.723718468867,694.9222220820099,2663.271818851027,6370.030227166757,-12643.373734463932,1679.4746329924199,11457.162331797814,302.4958760453253,-13001.4656939974,5136.651717348405,3794.981001680338,3741.325573517134,-6332.7461300771965,-3743.8513772680826,4109.9216003949605,-14948.959491419986,7180.960921534203,4610.624355225928,-506.9424622646426,-2431.403137003022,-1252.3029786288937,2045.376010377995,1529.4751167128288,-518.2619447207758,-6381.084338250107,-3356.612161171193,2158.1908853386676,2964.065752410927,1003.5444337312839,-3458.4696915825334,3832.137139163545,2538.4543528061713,-3993.8222855625327,-787.6236196205756,14694.36145387944,-10610.414481173386,2027.3824842150423,7000.300359863562,-286.27505345017414,5437.782846751008,-2566.906432692719,-31.24617533145654,2496.7410633306417,-869.5965717573348,1537.2769887493578,-6951.3766719322875,7650.939518625308,4398.459313570795,-4955.0730672288155,3858.4008791382284,241.60313493417124,-1039.372255966033,-4502.075831231496,-276.1345056637703,9495.073050737175,-11204.434689636477,611.7756351029112,8364.320795035712,-2095.399269173539,1746.9761270010804,662.1532950453658,-5286.3315261303005,9259.606157064349,-2142.5680027277276,-15621.505790336421,1167.357413566131,2488.1232539230336,7734.147664104651,-16462.74095477825,5305.386797289689,644.5661295213725,-2079.528846878634,-2494.3694327330777,8972.479237036945,-4987.965029440458,-10217.019903833007,6131.496026920238,9546.190509793436,-6537.23942426967,-720.6602160261623,5587.063773495885,-6223.1659071628355,507.5149136524363,36.82214724862395,-11024.669367332657,-420.95359107749687,1766.9055803191814,12097.871634035771,-6311.159855535396,-1073.7653424148457,-1076.1153125091428,-1937.4197813583119,7202.516968659202,-5442.697015363296,4814.7173862366835,-8773.466368447189,-3788.910710454757,8975.11887423465,1649.731819809192,2436.105516315672,-5965.215976164623,1254.6094778686672,3283.623860414003,-1543.7456113435078,-18578.74236347119,4067.426208513521,9332.636247894608,5003.465061310501,-578.3661098127445,-4097.032529844982,1159.398751003734,2570.9606186746837,-3536.4843739238427,3586.6747376412823,-4841.533168241183,-1408.2046532697113,-1891.058402552262,4944.482721282731,-5545.920570319112,6519.438510262454,-5307.900234726543,3660.1209618587022,882.3805939612753,-5060.386169082633,-1836.1080697935674,1366.30549234388,6158.958465645913,827.554221393276,-5073.503349669696,490.84413678983736,3143.659272562547,1737.9060844968947,3563.425373757514,-6826.757647314933,10849.252949032332,-19900.23578555617,14588.743005549028,-1832.9551841362193,-6674.885667432011,-2760.3454661252745,4481.5336334878775,-3285.451683972703,4572.00045029911,-6428.813486028263,-7149.521865558728,2579.7896437339414,-4444.569960327137,9021.717231944138,-3448.790173075703,-2799.541410593488,-1702.1855993342642,-624.916003912787,-1064.1182578083442,-36.93690087944488,-1258.0431429754306,558.137025743874,-1402.7283678007423,4402.774045740369,5063.9692970901915,-12685.909243744816,-1665.7025685885462,5930.510932345563,-7443.87832992148,4786.602718036883,-8339.969755191463,10172.396962767716,1294.3863091388878,-1792.5618795120006,4089.9040268547437,-4829.645302719295,88.80650279928082,6751.65221942101,-7710.7188330123245,3687.6453176025166,-3645.3936110321806,-7409.766875291249,5647.42647650659,7560.519186893903,-628.7496929072433,-7138.528361283414,2877.1495539544476,-8586.206298801095,7288.200717977814,2329.6742831100623,-15373.478328745752,10475.063391245267,2631.6304989063983,774.1623626388428,1766.325976474322,2743.2966847983607,4066.200428027828,-2439.257071296478,1766.6873320957693,166.19668163195703,-7518.198011383276,6745.847522427158,4686.053396808737,-2919.004231905347,-168.10124566101723,1310.2110999730853,-11937.94611089082,8241.299674626825,5858.526593814272,-7439.625209053756,-1575.449522706385,3660.1501374069317,7551.841966823811,-4718.696124687253,-2454.8239553521125,5557.563943293601,-2975.980113518928,2908.1532007362575,-6724.588136649736,4936.517249578287,-15146.787045786941,1619.8060058525502,5109.16703853612,10057.615497717785,-6289.428972417247,-4595.876705182391,6276.270038588621,-3103.783033987625,-846.3524842562205,-4527.93119070635,-7779.253889119626,14017.934678093829,-11609.402720295426,3623.5376357035843,-590.2066238714365,834.0619557808423,-6162.422145220114,-2450.3418817048146,2208.9672797648086,4942.729216158266,-10006.652500761615,3222.932778520599,5174.053475811262,-3737.255113316711,-1803.2507779116145,1256.562434282186,1899.8580865203628,556.0497833429503,884.54115046891,4029.758492502983,-14980.741713097359,-664.4623708729445,14084.082646925925,-2672.3159151337763,-4046.466698970606,-1876.8912760983628,10328.445537120617,-10713.855224637031,-2966.7469869492274,8618.748319632406,5490.075159426478,-12832.019698544695,3113.236838220307,13158.040593672542,-1815.9352416059257,-8433.41116292573,-2527.3934612535213,3932.0304385692275,4044.4536342591255,-4865.321238277984,-7885.996092387387,6936.954129661888,14103.949253856446,151.52473952010766,-1887.4189503066864,2996.190761233279,-2469.5259078499435,4838.479583691936,903.272544586414,-3982.4533511825666,-1196.4594570688027,4276.500378198201,-1093.4829683788648,-220.84710662382886,8991.296515842485,-1020.1175167542235,-4375.688816258743,582.9646111347547,10119.46196075641,-9118.822858180129,-8788.19013810348,10791.910128804326,-1845.8418434575678,2086.6444629473463,-259.7530378653703,533.8008881356724,-9718.962004710773,7126.831840517441,80.56121850833733,368.7083834048285,2027.1488174864298,-10577.312161912576,7622.611043043556,-3556.2475138801583,3052.4195347442305,-1049.6504679761867,205.73421960112967,1600.680895511469,9434.66852284494,-12071.698223816846,-8867.560896849249,6871.129075537328,5871.0934055133885,5998.523086366776,-2986.172461036348,-10373.38378537348,2298.8102799507265,2878.5873809668456,-4597.367258949259,11112.070475282257,-16205.339558185507,3069.77670073008,7454.237932526944,3879.647121543402,-2318.069618343569,-7662.904214699956,1843.9256108363882,1502.312662327055,5580.047540093389,233.02571932028323,-9342.179785038958,-2713.8278440241934,9643.125709000473,-4720.361583365531,1245.4326635212428,2940.135955017996,613.0153632024882,-4765.201907787266,5337.824797747019,-3771.3523931824047,-2432.2119626601234,-2268.4523488110663,3205.3816835848575,3360.5334514533088,-3945.8472603744067,-313.9895773469058,1145.9448838013918,-3767.240352604586,6753.226470029357,1946.1375935571368,-9527.732716740797,3288.146740660264,7648.692519960698,-2779.4933788607304,-1622.9053183522556,90.95443378608056,-1177.6198164758193,7014.148824675871,627.4632023539536,-1968.639374134856,925.7773541221914,-4129.237457963802,4256.955547601074,-1819.9181153944799,3538.8856623259885,-3490.9279169061115,3802.551929629713,-3864.2943539106755,-36.55948295116239,3411.301913674901,-969.4408295716921,4382.319542971574,-9854.072593694984,12025.018832444606,2878.021044391021,-2741.0345047084847,-486.16141853810564,20.924875351714654,-5122.454343847192,6892.291163231083,2269.021065163937,-9414.515073840324,10717.303182590222,-5992.825645887954,-129.64802232199966,2357.800899031348,1516.231711235287,-148.6917225118407,8829.49883037901,-2406.2360458385897,-19241.887207097356,10710.45286720154,2206.1010547868423,5054.820626425489,-5172.5979618886995,1794.8126880822022,-255.57799951762732,943.5619135814152,7689.476939745556,-4092.969211552851,-4550.714095320931,1122.1050252999653,-2191.6710326235984,3575.8391303257085,4617.225862740515,-7461.09881403104,734.7617408614178,4430.1948879004485,5084.882908647788,2934.8261576427085,-16260.056853236982,8847.547901149137,6883.746021057238,-373.98074740695387,-1353.2217788862263,-1423.0588931912598,-1483.4299999241439,1912.071556745309,4749.280848858211,-2089.220552783759,-8428.217487013333,3228.5359078592323,7970.225953707647,-2912.4126613493927,-7503.689545375845,2923.3787732823566,593.6234330082465,-6076.510667491186,4679.952716792754,4529.313314424184,-10586.665081026642,3313.300168940038,13254.313044898838,-5633.321394284706,-4667.212987202992,3318.6020047834663,-4735.461958229186,-10758.424447333186,9708.510608535882,8355.078075165233,-8454.668501186774,-447.5738346822684,15889.95260156479,-2140.298626239145,-6276.5181743273,36.563124231335024,9669.35135323419,-900.7902265911933,-1505.2117440894415,-7087.196824540164,-1636.6320546285979,1970.030909494786,6612.208794103299,-2659.393136193363,6799.1237212380165,-5420.2566473557035,37.962813972483126,4193.598124710606,-3874.1981902481302,6582.4215196217965,-17191.205235865116,3095.456970595034,13053.074152338126,-4232.829394012636,-3105.7882344224663,-6946.387514729939,6620.898780258355,4598.475688932349,-2739.4732209390427,-19388.543554892694,4869.628956737208,11631.927684993632,-2746.4515975474333,-1140.657204711736,-3809.061229016802,4173.2164655224,3177.1988605199585,3320.184557834445,-3980.587474267381,-478.7239275517734,-3172.3663775239716,888.2395487124735,-2213.4884817725206,7997.090133884661,687.9010476840931,2048.751618991213,2647.9510887587135,-2706.481115537897,-1702.6270203306306,-8089.763944879021,3660.406279618399,-1470.1415540562455,365.5414067321477,8140.137917953735,-3941.5691842130054,1635.8393946685403,-4489.84900764743,580.1017703477646,8455.270175998778,-15050.394992810103,-137.16993736197205,7702.771217691471,9122.56503277066,-4379.314255187495,-748.285732542414,-2046.8309669724529,5836.248536608198,-6376.098060623007,3157.240257781696,-12093.68387795243,7760.96003763104,5897.0207551605745,944.6498181154436,-3550.8664420717555,-1282.557382139957,-2046.0122783393183,8229.919042622878,-1968.291368276642,-3165.1453870405267,-7626.766116807798,2078.9663153954443,3832.030028550287,2254.2260114446217,-2930.412527978217,-10557.953738034084,10316.89693173331,-2232.170151373605,-903.0103441588451,-8653.091027352106,8673.922427720705,-1794.3598856598092,7555.659126420823,-4661.587670022274,538.2824092758898,2952.3097359506046,4794.184980899096,-5750.3100416590505,-1917.7274098276132,-1101.0823019240963,3760.7476041265995,6915.4419670710095,1163.8373728059885,-9220.72779023621,-9226.06328966349,7978.37877759129,5337.373225712675,-6021.252170405426,-8434.853629529603,3843.111650591564,-1213.391213469205,5117.90906311009,-3813.0290352612665,-3366.0289905318896,7737.129484563085,1500.137178463516,-1710.0377137798102,7503.643782772171,-13864.153845723222,389.4484017314449,5578.323954087976,2243.177544530304,-6587.681536311792,6228.434562682041,-606.4397330566617,306.9675883626445,1875.6099813683002,-8383.109158297599,-7513.589558202312,-752.5583602909459,10467.316165440227,-2080.880005292869,2412.3849088334773,-5955.76352742046,-8984.88061712737,10849.839631374974,-4161.563155569373,-58.56228638720968,-2757.6717788194883,-6679.553054076729,12855.099499452055,7031.892555022977,-3667.5207596234313,-5505.816425108036,3915.9389021749994,-81.42032583851218,-5769.36233418986,1018.8444744766102,-2087.581699579855,7813.4442603897305,-5426.303593705977,7727.507929152821,-2161.954854407682,-11686.321731685646,3835.533398647683,6431.140951697947,-4823.914930286256,-6987.935670633422,12931.218356791229,-15898.9961161667,17058.33898697011,-8646.684552887087,1867.306351423479,-1166.1677245158578,-461.2430181037391,8202.992794903135,-6290.458381205577,-9301.750221989552,6507.727149120499,1075.6386860262733,-139.8454298651008,2275.106997801968,136.72540145667722,8791.845472831203,-12674.064696554566,-1843.0688389653242,4554.146337041413,259.1446332135637,-4031.479628096479,3354.1837698166364,4250.141674424049,-4780.132254640676,1516.7630289682597,3248.041855903477,-9496.517829606484,8254.27655868525,-6416.742237304392,-3442.477239404305,1793.7554749694268,5212.710391102996,2784.227722233242,-7253.895063413466,3408.4174144588264,1265.125601216342,288.9778380929363,-3663.652918946625,5765.268117571586,-3432.6197029706905,-2675.843859096881,5126.16394775617,4158.773779986431,-3181.8979733071774,-899.8926203802733,-6392.902184345719,9290.063249234596,833.9272145983417,-10368.557508663442,-576.1943669201132,8115.064965020222,-1208.9521542553332,4352.896158142774,-4075.9373734577152,-2945.726523585154,4980.2760167351835,-3431.2712252429237,-820.8473873543825,-1667.5424513147198,290.55079900702674,-2873.357239720126,3457.229457732392,4120.80156576849,2367.9821523368087,9366.863110110444,-8237.858941237751,2508.435360412213,2730.5344343058287,-9959.874461455005,489.4575005249142,1650.91196103657,-1134.6068116635768,4419.67083271792,4461.906193774363,-6281.9876125477485,-1607.9699946567794,5172.742440400578,514.9292710448218,-4066.735389481686,1940.8011709918665,-6831.592805031582,9176.64510487947,-5692.749337196313,3056.0341873377665,-839.830720557498,-1777.772633569586,-2979.065566020689,4664.234265878427,-6590.9840595360065,-254.63764705240973,2881.7834709282815,12.162143427594419,4081.5160237466243,-2623.8021735395205,-5788.643809564911,4674.010805450005,1205.796557627142,1200.5374782911726,-9751.278329118502,9552.805016427295,-10308.925043594509,17236.793066872546,-4303.104022378819,-4228.095334327558,424.56877619311604,7494.035478521732,-7062.553417957167,4321.59811775803,-8829.836484584303,-8906.814266430547,11870.635018670035,4104.836227700001,-2212.5742187747687,7306.776236377994,-3629.06002972189,-1914.6101435266673,5460.606085981985,-1378.358942725724,-2223.1129784720024,4234.305309920101,4312.255533422037,3792.34943717529,-3437.3988775738358,-3005.9592854763678,4461.551454234563,-8944.916654491512,5307.637762140199,-4949.454122313367,424.80957043435444,5634.837491783991,484.00048975958066,1169.4323266486879,-914.2427870939978,-3824.652692456946,1151.2935337397093,2357.668851320599,3687.375111476119,-3724.0418238765233,-643.4690355924123,-7155.062848304398,11875.280343688162,-3809.705506354716,-2425.1139623643826,5046.782509983095,1007.9577099677336,112.26674201159217,6160.847881158706,-6774.673343351852,-5710.683880464777,8205.100944420985,2783.882836677714,-5692.2788978680965,2301.9474162810798,-3138.2998173501583,-19.74944614188804,3057.890367188023,1517.1905859514043,-4437.187659218239,642.6236250794004,23.669412199492143,10833.955018612995,-6927.247376099553,2384.3300214534893,-5163.597620111244,3283.738156056132,-3891.6813508076975,5602.168900922199,-14833.991091682678,7195.138578771055,-844.5046171094027,-3542.4529852902306,6806.20885430053,1928.3361519221912,-10074.559367088059,2913.0998097320353,11147.75801344074,-3836.9685391210223,-8814.541229844528,2837.4534998703484,-4520.165186489599,4992.797494449214,-246.76408980462614,4727.341202531202,-10945.06915286589,5086.446692743332,3810.9787702419685,-423.3131383541711,-7767.008920297323,4037.141360456856,1224.1797477719892,7384.188526028419,-1935.6314523656301,-2961.0303329891995,-714.8419446486079,5165.151858608441,-4476.6735916837615,3869.3962524762987,-7243.076195856874,3573.443517974891,-4773.393402837108,7579.276707166218,11758.496724796507,-8654.80952524576,-3307.814643836022,9220.800847814067,450.7916924894623,-10918.151437223649,-2351.287703421882,-2258.6958178593563,14469.885259490684,-2478.0352451198823,-1163.80328096726,-3196.600230509208,-21.661287225255727,-3188.7168360614073,3712.1371909396544,-877.4473595720796,-8180.076306437742,3277.721569576941,4521.207857177045,455.3199831104567,-387.2187645531328,1768.586419016549,-2049.1687961029897,4436.079080329111,-3508.499095653186,-7239.66082116032,4372.57388417576,9647.589379918547,8039.675214869096,-12287.900044076117,1288.5510785587403,7859.738374182561,-2041.5618255002864,-4969.996456824805,14082.053046888988,-20324.992207573632,8019.291057111288,-9654.77316085796,19170.407477917484,4329.96490132113,-7958.090842453405,-1524.7611811966449,-1510.2750107809347,7878.986908446019,-2708.4870638870566,-17090.405155417495,4616.333112836128,11287.723789133852,1978.3224792124402,-4276.195457552735,-5817.525414731972,-882.5450971673667,4304.945362040148,4793.060388727003,-237.62519878804633,-6224.199385466671,5176.394982712671,-3191.6858974942693,5930.63483894648,-2582.9876780928944,-2210.2028483165304,1626.2849279663014,2161.8159107975935,-938.8000931401257,-13146.655328938828,-4767.00233407712,11757.386811253846,4906.550166454934,-2080.346957086882,-5759.125336429451,1761.0482589168025,-6661.378983509086,1219.0637072394293,4557.39551212081,-3291.399165895395,-8322.268729191039,4917.531970148641,5871.951645682405,-5165.841109948437,-1481.2098350111323,2897.554786464304,2614.91550510287,-3047.569702120781,5871.04177119362,-15139.96105387163,2258.942924993317,6792.254132321212,-5244.545875860366,5044.101553302484,-5837.777796666062,392.97379882258696,2934.807707086741,1733.7086904333428,-1161.525907287891,-2452.8670802708275,-2422.8250140537657,2868.1201552574285,3006.950834196628,-6546.417522644278,3112.450557876386,3718.3565894899566,-2061.0892268340144,5987.433004887253,-1153.2053110550237,-14327.329383236774,8105.170397194422,8722.958264168628,-6188.864055517651,-1440.5247735366752,-1935.4392128215407,-1209.077383944855,2240.8284141341996,5026.826665231847,6057.28479489063,-10071.227034246132,2041.5824213364585,1420.913393899736,2327.310149653388,3512.3415318009556,-5822.126538191343,-6766.678407215095,10239.220034988703,-4180.139948494645,328.03873767896476,-15444.736262309307,11515.879706408246,9805.266923798717,-1363.6457852047963,-8032.741303535379,-4213.098748268453,4118.536426819151,167.7787006967443,681.9606951603508,370.54824062296393,-1604.8597791810712,-5211.559071946378,6344.926780473862,3414.7561988411576,3067.4838262589856,-8068.534964951898,1672.5243174103164,2054.233632217861,370.96792679865916,-2285.484546292294,-8644.708623530074,2130.8789371995053,10951.643873838892,-7702.464732625889,-560.712464197301,-752.3875894445908,2816.144237534846,-8133.8480949255245,1371.3146590143617,53.89864639830121,-5877.924158943867,-3721.0935200328217,12455.388691424128,-7886.087496988151,-3915.7357029844234,-4601.577445021593,7918.6875745104835,333.1240554093715,-1919.8792766084134,-1621.0329426664964,-7101.247893893147,2635.347825226522,-1078.397600209669,-2529.2521894741344,3393.0708586492615,-4070.731860734645,-28.361185290628473,1881.9749832547486,-40.04213418785028,-5943.330342693009,-5779.351366004494,11184.869090693945,794.9644488348339,4816.300217844241,5638.339227248471,-7465.501611639941,-2092.961272126155,10980.835122122211,-2858.4351700149696,107.47636382736586,-2539.2520132633404,-862.4241423895335,9138.099884181987,-1523.3869232927025,-2167.000396524316,-419.2630447357756,-1525.068398715473,4771.550092034926,4703.5278807340765,-7394.043950984129,-4271.0316713318425,-3449.598188008398,10991.14669946082,8071.017937984271,-1305.159932628121,-10111.841032971444,7446.186157240402,7779.950848329016,-4692.633651354998,-7246.218206503669,1465.1012187314523,3237.2672736684053,2953.0741273361373,-4006.6844977729315,-525.9356525618364,2329.8460131450643,504.1062985223323,-5975.91722977448,2164.6258200837187,-3150.343351837339,-8090.789784242676,8550.943311326037,3673.119276826022,-4698.829232254972,-3997.055219216794,7434.894644950418,-8970.48329766631,5642.362453487314,669.2883962498308,-1834.810300766481,-5560.861587932433,8139.547475386506,-3093.2687688691885,820.3421140925788,-7327.48062166532,-178.63059729992895,10606.597798341683,-677.2941494297103,-2923.3246211037317,-8395.021800538354,5341.130546833782,2208.714844068516,-321.36614019512734,-776.1827163031942,-5406.842589967236,5381.039364168104,-571.8390726490168,506.6356243651753,-3242.994488219209,-1201.4870829555439,820.0275126356626,3139.729252464352,1436.2753255766954,-1842.4506395580795,704.8655827919528,-1254.4721434012245,757.0473888551693,-2876.0167720758996,3715.0630119608013,-12098.12213828922,-3256.977184512846,18273.330389296672,-264.7681577560535,-5712.071712735697,1406.7817251024865,-2158.0586264835965,-2793.2142499826755,10600.034714592652,-17461.2641345763,8642.942412195678,5442.57639654954,1586.592086280948,-4954.521856272702,-853.0885555869387,-3350.940259630094,1352.511159931532,3415.8231575901527,9511.491277123177,-15775.684169424712,-2218.252427893554,10215.796353062138,5611.616705898639,-11069.001659820042,-4652.3915374815,4617.789892829065,-575.8696410198194,2456.1828995677565,146.36681674637526,-10026.59202928784,7045.210458303855,7599.2351456002425,3513.6346796695284,-3415.6636542027477,-8819.180431107132,10754.95019960948,-8543.836359167044,-370.0776833452999,1769.1040864000588,-4621.001910468303,-191.31299824538218,13618.990229312316,-3087.541288333003,-4605.284426387935,904.8315400060828,1233.6416920585905,-209.00329900911092,4715.251797597801,-12773.392918578342,10202.370925940522,1999.904493974431,4790.100406583469,-3918.5589824013523,283.3749704802163,-5815.294908367542,3167.5553023492753,1132.4534238888732,-706.5814005832642,-5198.373180050172,535.0387962027087,1121.0341471457057,9499.471387041356,-3634.9258659564216,1509.9867177808392,1320.6882235983655,-2759.595133983254,6682.611419293256,-12894.838775494009,-2189.7823133572047,4611.087960212596,11120.649154439385,-7094.3094796310515,-2656.78323377262,-1722.6099480632672,10209.30374692002,-9830.735133300966,192.10686474988339,5348.47043451578,-10465.184524365055,17328.996940769935,-12568.997151643223,5419.576323353256,-773.7196397060537,-1268.3492358602548,-903.6075114139827,488.6351920853356,13574.430607944092,-8034.842146431403,-6820.641200376291,1159.0919361037568,14251.92114045568,-4229.286120971486,-2699.0048018960783,2748.8607337812805,-3944.2170572342466,-3082.686424134127,5952.937154965738,-3089.931891827377,-1999.1459853180045,-5596.470858358931,16341.863218950273,-4604.178474252427,-237.35588345294738,-7007.876432187348,-1535.4073185315847,9142.327203792045,-3584.726362647871,2792.226360568528,1975.4598809853806,-3279.275393696119,951.9526265594919,-4656.801098587776,7572.956382385737,1607.4501440065426,-2833.5480712920007,-3263.781218316076,14.484931268640375,10539.157687832394,-9266.545895728237,-6830.625509253416,18840.280255990732,-5235.005405461317,3533.8125751962452,-6893.883372026042,-2336.275397749829,8649.975823127119,-5776.35845295605,3004.1857688065934,-5451.489113352571,8118.892197366965,250.33448238958627,-1761.9638684145227,1970.6645325519512,3832.919217356938,-3368.2334864133045,927.0978787529747,7330.311617680849,-6243.173299389388,-1808.4190177307378,-4485.926308476648,7604.525906577464,2104.726673981768,-231.1472340097024,-6391.198714056731,2554.379240984275,7581.380693858785,-1298.882242890706,-6693.099252745035,-5603.236230071496,11227.011454851145,-4267.845750665985,5975.395580553195,-5759.579683224912,-2626.9341333665,1873.1499180087976,5233.499360813266,-3157.3781443585826,2530.268026761835,-5958.344049931695,-6387.276753147263,8803.204555965369,6838.749238544533,-6951.53797826766,1095.5108994936359,2030.8041080979206,3548.09897565477,1502.7640834304586,-12942.026750693523,8647.317254321237,6003.201340727799,7519.828665201279,-6705.273971555598,-926.732938772388,7904.879673423923,4547.369006067081,-2101.7253352191597,-4527.586351093026,5604.4706592055945,-6869.446518579088,6259.018730087043,1040.1997279540549,-3493.8233938629874,294.2634388519355,-5579.1799556168635,766.9576995547142,5003.375283318575,-1410.0961149813804,1881.1535152954052,-6461.534184111761,5746.223328719108,14888.220818471566,-13262.719520863611,-3840.575532027094,4442.379512328451,6360.376834805859,193.93886672924225,-3415.2708972149003,-2483.6220551393053,3298.192831431651,-1256.4198575307637,1340.6684045867157,-1087.1154387990675,1716.0713915026251,2298.869425238957,4600.329872816362,-2929.5340021772386,-485.2253757856169,-8715.079164758768,9489.989978807147,5903.400850677484,-3420.8075918333384,134.70461902505005,-5980.65266471428,-3016.6715915970694,8575.392050989822,-363.32914748689336,-8113.66288337477,4881.042735135908,-2648.3689162204323,-1360.011695825314,3731.9983974144766,-4384.316200852899,-2052.5662988637137,-1506.22474612038,4450.384636677914,438.6842131793595,-16084.70446437533,6051.992476732039,4902.777994752761,6915.447630661228,-3506.7303776898857,2194.94662110842,-9253.048405451213,345.743841739109,12967.88241074945,-1604.7599092799082,-11856.83833141451,11280.303038892727,-6356.134284779744,-1828.5146274666558,7571.13459438138,2735.2957980719966,-66.5643278590066,-696.9331826009761,205.6422682834018,3269.6295526390795,-12896.72175470002,4243.671492063796,6244.593991746666,-4335.849508120327,3407.470859647157,-2599.169868283044,1551.3493448815486,-6494.576983794718,3767.180162478066,10115.611970636657,-10058.387988143191,832.2961584397909,-475.0695782734007,3723.5991502990205,-3308.893321901866,-327.10709580111984,-5442.415834455205,6742.302537426366,-3985.6484360702834,-6821.077082496441,4595.010924749508,3846.591860748225,2047.2322246801764,-2889.670971536839,9796.139020016615,-10295.884578420699,247.5101285863223,3698.2660431792187,4302.485202867175,-18612.818468630052,20482.954200415526,-13226.300878432054,10416.613905919685,2728.520326689362,-6821.151029062583,595.3893309513038,6869.935500757515,4401.402852598192,-8882.788903377652,-3573.203111855708,10470.906501697766,2578.1871430633278,-4005.3104980217317,-2036.3333309435113,-1581.257715654124,-588.2888188383275,2601.2342525170066,-59.43901663567849,-853.0031046329663,-6791.809945133976,2243.4976144243305,5251.969860287825,-3404.4822077027243,4608.194541279425,2817.7301812802943,-4204.870385190781,9655.973866360624,111.19322193172273,-7658.406048153754,199.07982116671056,-879.3224356425355,8449.357801619739,763.9657504799289,-3882.1639817867213,492.92867246406195,-3994.5476169013923,2187.3420215997285,7956.964022481285,-15933.840103593764,5441.185700797095,-6820.053177915694,10025.259367987894,7753.380371528735,-5573.46225331697,-1558.7802105109192,-4978.979036198587,10345.29398479308,2041.2935924721062,-18981.01364566009,-1114.91047006534,14063.388880931683,678.1599427365156,-1183.2241282198438,-7300.315266570963,7546.686773288463,1594.6141273723956,1177.0367424661363,2375.438161157951,-9530.390722455899,3769.1668871576217,-3833.606418861427,5889.40879675638,-3024.128881886566,-2871.372302323333,1905.9391753426958,-3233.304086628168,734.3666342589161,1725.4247089350094,-12941.457215467366,6899.573366141844,10412.485674770302,-7051.539260716852,5162.198659240729,-5856.113881002592,11715.414892135157,-4942.5335365730325,4409.484267277181,1042.656210917038,-7283.433013468223,4586.960131443772,-149.80202938965235,2813.0151879336736,-1232.5592411146808,-3746.9694893137844,8098.537550471507,-4115.423838687382,3101.5317853471956,-8826.3360672866,-2566.2012612045523,3009.035380548661,6375.9602313402,3489.150188763348,-4397.941877392843,-1990.2594389007425,5320.557466686985,-5314.249489667048,-5297.487460146987,2387.7362166639095,-11456.505211896934,6450.19348778095,7548.763465406508,-1921.5767689945385,-6727.8223151782995,3147.834719184655,-900.4905289199098,-1654.8938015008973,9437.386552125967,-3088.8149196026793,-11764.483625367666,269.7057889070856,14053.884482716077,-9561.122478384359,3183.341197289201,-5583.0760290320295,5932.767632067262,-725.9924271794871,3391.6738792660963,-3762.9974870398873,-6483.6449853033955,-2125.430816053217,13443.817840579542,2138.4502837970485,-1943.5566775457294,1505.904622956125,185.00019298453574,2885.685480172746,-6336.999168489863,-1201.135547135547,-11338.947165830024,13547.42590685192,1318.709941124768,2002.9592559270104,-1006.5475191237201,-5221.900829372975,9666.101267723763,-3536.2735229696304,6093.093195972053,-3756.813468747702,-1933.4227996813988,-4615.090903889725,13983.941518362055,-8850.548339377363,1046.6995527349352,3459.8254542319314,-3745.465044455277,6913.355143087184,-2072.0718680922096,-3835.080670906096,-7899.540541353445,16970.195357596473,4848.841198629733,-237.67250813836344,-8805.024526039237,-1860.368292546194,-4342.531275710177,1534.8542730582567,7197.573601753476,-4810.77785446297,-10343.241989332424,7186.8167499931715,4320.089706949161,1208.4157322303315,-5545.012192995313,3081.909259928633,242.96972278097917,7175.424725077723,-5247.491826408326,-4290.112200870399,-3667.5686219901604,703.1733436935684,4728.520585867768,1994.6040820400365,727.5755122725072,1705.2441140849185,-8105.915382503965,2163.9984295056765,5356.3992644561185,-5631.35266707218,-643.882286479992,3935.427007558486,6906.3488344554235,404.91549508920855,-4071.818146176535,-4425.8900436218755,330.0798746045522,8822.359058400183,-10609.292066115528,-5331.594168395407,-2519.8515654149423,13313.474731135246,3167.9141651362074,-3936.31434516666,-1935.546966115935,-5632.775483813092,8164.618164075904,-1077.5314915266476,-6493.929109610402,-4072.2237208397296,-4445.732415351673,767.622770884183,10568.003493578026,-442.73115433575254,-5913.423376610769,-3247.5358431720233,-1512.5905260033223,-1724.227851647949,7398.483218757776,-14503.109246699281,10424.40078684176,8927.204198602203,-7103.921740094537,2259.3126779556806,-9.14444666015981,-1123.9232771146571,-393.5181735859958,2095.867354818535,-6994.63192593187,54.936752047579105,5528.79615609416,2185.775580176893,-4905.608590888251,1225.4733752458533,31.591465323088197,-5247.571802018496,8934.567332413193,4853.498148016745,-7084.699076167241,-9529.708244313153,3354.082958135469,7242.356714657602,-436.9647908388311,-9221.653628547512,-7097.257605062056,5894.840155806712,699.9951046586402,6528.104529271543,268.9291103416966,-11138.773845641757,520.1191779876469,13410.987227829339,-4285.414008763192,-1653.9937201045745,-1516.9751803573495,2790.664589307812,4195.330829579597,6089.577918097081,-6457.059312789843,-8349.986420909252,3131.6363471882073,15523.706167253558,-5125.637764934692,-10834.570842363515,3373.590056214024,1748.8034789154794,-1229.0682741065625,13042.930101750208,-4534.864306932906,-11970.099696397234,-2120.952711885844,11356.066883274905,-6161.003577307246,-958.6062055479804,5837.337667592965,-943.4752557576699,-2326.3644805955264,5103.222075128764,2134.5492751266997,-13363.607806822367,973.3344159214731,8342.894505740189,462.74986584413165,-9097.62922697409,5797.55723205247,4105.316727271507,-5154.090478035974,2572.8633193416845,-4157.2872258440875,-11309.193736232866,2258.16527655408,-430.38779713054987,8758.312039139733,-1189.077822572384,-2075.438602034635,-199.91666759278343,2609.7930673179635,-1609.6437030833058,-4665.240892394091,-1686.0275280491012,11870.994553277267,-1042.8124984913252,-1844.338506632472,4022.0058056465573,-1267.4629807943636,-5794.031853293097,4867.741754942612,1075.6841670527576,-3146.326373785903,-8268.905238034222,9698.47066615622,4500.228824420812,-9382.878995801073,-2180.5408815520627,-2000.1308344613071,642.7948046583992,1996.653154544497,3381.3469592240326,-7451.616450571907,1159.0005964831014,11049.869547315948,-5096.652876311538,-3897.5874689411053,4782.358175919458,2025.1959761169462,-6226.05929353141,9728.9092183822,-4922.859507878784,-10650.840164705329,10870.102126255992,942.3996176155497,-1406.4565005846903,-5019.2906143538785,6756.380642857286,1086.334698532735,-7873.925830181509,3668.1762580038385,-3186.6889155718222,-4268.560695414104,1394.4768790265837,8773.011423810782,1728.6845335910557,-11000.063138488696,3996.917022778846,-365.434244140855,-290.3201793334096,1141.8428343233409,7240.2651154851455,-5050.557856929134,-2871.60383311763,7279.862912126876,3192.649900340591,-3526.029534893196,-2363.0873695911555,59.86187882974118,2517.273918475108,4873.3078123048945,-9302.104906893515,-7897.2386708890135,-6385.351287257244,16716.696311174972,5268.488113110411,-9488.007500598706,458.6056863142679,8932.33476333623,-8435.954586173455,1010.0881756195813,214.96129710070718,-6676.45842256452,-2.9100685824354877,7295.481839741776,2900.238448589334,-5504.158550793426,-4611.982734040157,3854.3068331182462,4242.650361759911,-672.6764966750097,3608.1701524832506,-16274.368033204873,12796.024528736942,8228.909181253252,-2715.108211970007,-11286.867176152677,5573.822391146453,4744.6914475837075,-2018.0130961494613,1174.1528128893451,1084.9840014097126,-3467.6029082577925,-3.7205851390095632,13133.919362087401,-8286.901735845997,3651.2796576065157,-1050.2801014841739,-9864.265436298174,6217.704366590621,1421.290655825124,-9746.611937268839,12.807564209452394,12752.283041818511,1773.3575165534398,-10783.742462098233,-925.6322094460983,8671.998255772818,4005.967787310294,-6414.495177829183,3990.0718855592218,-9196.402284501568,10124.869259532681,1606.8741298703455,12302.593891005778,-7768.069843324023,-2854.755386277253,-2047.16582105371,4564.933196093327,-5760.662667697284,-4405.045554104289,-5043.260547470067,8867.490964977405,12371.950843425819,-7767.35532660685,-1689.7466376582252,-5172.212355925081,7417.8514708406665,-7778.025690084133,7647.816402616702,-5516.439150709962,3179.8938046706853,-5042.606731177639,6998.8686738395745,60.340567368586996,570.916319919589,-6641.345615836792,8175.686306884105,2409.2010925244163,-4004.3830904897277,-17354.84942488707,7440.776681604844,12033.072132682946,1311.7365403258361,-7095.24853862121,811.6620195934927,5208.28404963892,-6642.275726075126,-3434.7214154473436,4868.245156192052,-10642.996747653799,4089.9783634671408,5813.609677437105,890.3857168171063,-2911.689435673836,3641.1075199936126,-1947.2825101896776,-2893.7577803807812,1760.8627438903484,-2809.1856892186643,-1895.9087333308462,7014.7127883776775,326.2403231004397,-5338.496430942181,3183.2333786661275,-5002.315037460119,-4450.180681311312,536.7419525443756,1150.5008220365353,6730.139100516416,-17165.559105013424,2356.2772593317595,13295.053058834752,4483.247624010781,-11045.660098166769,800.1732231632777,-1528.6367384052405,7670.028211466007,-14460.646528101484,-3205.4514228565567,1994.2155946964733,6647.571181930927,573.3486616294209,-6129.54188763051,-6267.033546048478,1475.5452818198441,1142.587040778995,3280.952328523054,114.11160299708048,-4336.752397448799,-1739.9202515060367,2108.0341255469293,3892.02373301886,-4473.17255461447,-56.812254876921195,-46.09119277568152,2724.985430952045,4931.257999330098,-2995.1072986012864,-8633.900518126618,4115.516534786369,-3004.4832592085954,9193.883853540472,-3251.1074223382248,-4767.151696455601,5881.9763252344455,-5415.888050097007,4009.2389591768456,-216.0770885828746,4704.396165003897,-810.1455018467252,-3821.990602164419,10872.702326181638,-5508.451841708859,-6948.365391418051,4463.626060933909,3560.9628210085466,-5684.062250968253,-851.590033978937,-8072.143386385022,246.86181315286413,1005.0586494806873,7707.994860829036,-8072.8922374388085,-2382.4239875689377,9530.570388389837,-2873.4534551597167,-2269.912038365761,8251.680419214717,-10140.844604409991,3201.594708766044,-927.8406780915678,1766.7489237880689,-1430.538440829744,1951.4250460834457,-4958.9365648514595,7597.124215303791,-1.626710852399774,-13405.691811952875,2470.8636670633514,9734.78484050617,5722.530855759043,-9400.695927809653,-4141.844149377681,10384.67864668088,13.865401850365014,1565.6879515965256,3816.6727038307854,-7171.154522794195,4934.7116393997185,-2080.5796015871256,4730.90776188201,3128.5481698884482,-1309.499658329286,-4253.236267343316,3702.4778257880785,3598.368831328553,-2135.7336361755542,-15780.391498802426,6499.390368144218,9975.01290190337,-7233.272460729519,-5010.177028511356,-1087.8445224577,2488.823263364151,6080.635948023754,-1371.2296004203945,4533.063102942167,-7629.633911173673,-629.7033034084084,6536.490894943256,807.9140755784997,-6424.646719364068,-1780.7203133644105,5129.882368313479,-1856.3034120488321,4593.067322470573,-7599.755834241985,-5310.714401557328,9815.297893342205,6811.465217995873,-9851.73921578035,6872.081288479569,-7810.303982792157,-2841.344291597786,12169.336922997818,-6140.572146227081,-1100.7427626623755,-976.2843303899726,-4638.830190020391,9699.736282456844,3191.0945939366975,-9613.700720737008,326.8603051539348,9617.368826650041,2225.739994871928,-3544.8657677707956,-12548.816860978543,5205.891724207685,9253.326878201788,3012.6227152918595,-4626.254654057841,-625.0030248105716,410.05446805368246,5028.505504131833,-9278.60392237936,12555.477594752487,-9139.058004103657,-2601.0297048391926,554.3446598600704,1108.125170130072,9948.918327295329,-6862.25620891792,-2702.41846075291,5536.309286122099,1728.091816678474,-4799.779722758744,-9557.59785953996,4935.18225534792,2882.177682471146,1296.6442827316503,-1437.447474958402,-8847.05803600587,-2451.915086018327,1679.438683346461,5631.055557911954,1456.0908913943922,-9053.838946176445,3498.046816638565,8460.763719452745,1180.326936868727,-3818.9247274480226,-4942.2039344040895,-3644.8469470978407,-556.310051108821,5229.609434383673,-8001.06888699191,-9771.352154966578,11102.595151802518,4675.2087202906905,-4199.450688076801,-5619.692508004027,4967.717992140725,-1215.8056133641253,-3767.0729528688416,3489.0961890194485,4106.967103117352,-15391.20077743284,4065.222701414989,4362.126297538632,-510.40233730691807,3261.661281836977,-6303.614988060415,-5357.329878032723,6133.238410124852,5040.193852239645,-14039.181157168141,14112.697701789533,2096.2652814679395,2581.5842311114043,-2459.9779178443055,2315.2083335803004,1668.9083991495258,-157.42761617498027,4796.758841170642,-4506.326369613302,-2769.069210170674,-1206.1846298306104,-362.64769053040493,7029.532771970997,3470.6070840100483,-2944.859626310059,-101.6346792498466,-3566.9955383333527,5516.32980991947,-2780.3034043108983,-12372.218557986054,15687.09285743104,-3164.4794121328987,-2778.426994094765,9116.090846211519,-7066.097016842803,-5091.417005485313,4462.76530891168,4669.885918369129,-2432.386098979893,-11568.708397441238,10173.639282181866,-7564.230418929694,8416.108597531644,3188.662767659845,-10600.291804564775,-3728.3644720606467,9652.770202376852,-3267.2894407606454,4299.954593826746,-6945.949108669211,8133.701320128175,4593.3500160723515,-5490.480530647741,-971.6831915031311,4092.2424889772387,1225.5819819080969,-6185.989017818091,8977.674993551222,-240.74900859642003,-4427.970054550434,-683.3773299192432,5335.448539600353,7357.2643248324675,-1750.7910697614564,4167.106874514103,-5953.062415162767,713.20088713489,-331.5136037976632,-1278.8895290681005,-8243.761963516654,12270.673656543726,2989.0802213143306,-5025.9311180547265,-1807.3727806063862,-107.47344486669652,5210.567233238199,2140.71525356809,-314.71279110211367,-7842.557870883391,-5567.068361483108,-490.3821772901538,5556.294050033688,7883.696212728803,-8042.897844915433,2868.9090709764505,2146.824340783793,4874.2817932364815,-211.73911383395577,-6953.3064830777375,601.4667782092849,4910.639261388465,1519.8240979990944,-109.0444195045127,81.65527090358563,962.9394017494642,1935.7481710004906,-59.41939880082835,84.54046200229888,-10833.574784152761,7018.649463332682,-871.2584568821263,10200.815433749594,1410.8801129876751,-5994.118320137769,-8492.760540763637,-795.4775500920643,6911.328875620307,-8047.430221601191,-9750.991855538477,-1875.9109385045213,15945.122158973425,6550.969027642842,-9099.58776524678,-6546.582036420814,-1170.448268973027,1527.1461204618893,1584.782116010721,1326.1156117171254,-2361.304698171321,-5851.7960164129045,1377.2323091408416,-3033.1388818775695,12079.201098268359,-7907.1595296484475,-4052.3259202958875,4346.588341111216,-1565.6343883591974,-2723.058306250741,-6167.34172099961,9770.583064224718,-1143.319039987155,3951.4660400025277,2029.4456872649298,-4307.748276132547,-788.9655445974256,-4122.087636541294,9517.472742467795,-4847.3730174652455,-297.95548339674997,-2688.0365102745045,9815.270018608777,2029.063127959952,-2584.607826913785,-1531.20541245683,-9501.371643645261,24346.55754961936,-21167.030647362677,-1527.4185065487557,10674.398922524995,7447.864903335151,-8398.857195345914,-1744.2036002958305,1589.6438663600045,-3874.08520568361,-391.8479453001325,9040.227818657053,-5071.2018335412,-10209.926407816902,10540.711937900884,9390.291503795826,-5788.259370168708,409.9777864141977,7740.846382041474,-2681.048357480842,2524.8168265286654,-12182.538843584638,-2530.5853468887553,119.47300078374195,8780.304731795004,4111.302425237168,-4785.002947389101,-1047.6792115333578,-1492.246905047408,4107.9121391140525,-2121.195961279164,15268.41426868426,-15466.901292587625,7954.252672071494,-6003.168880732847,13196.134367219305,1131.589667619794,-14105.306410006313,-1423.5150606864765,7616.936106496836,5427.810208278668,138.93668405564517,-137.89724076354935,-7660.530740720704,11534.321220192794,6121.677392784754,-1173.4182873408017,-543.8364850016895,-1998.0446220372542,1372.9235137732194,-85.0011342790656,2567.1009729565812,-8319.38022269735,-2214.2854172857074,6134.002434180945,6929.762102791145,-7942.753659357815,-427.0213371257988,-1321.6958989353327,2069.475065314622,9748.890152589265,-11363.968958934987,-8525.709212752565,2500.637822969705,12348.100725223043,6573.280811602092,-5612.720508897913,-11081.45290323261,2170.690022151988,7886.914375479624,419.27338425178345,-1564.1980407011201,-12988.107434242318,13558.35360637062,-998.182889520802,3165.036195415126,3739.9633359307236,-3595.6395063454856,-4106.556717651604,3278.8682072116962,2210.4377036359742,-528.5757363481551,-13794.481888807602,1719.259708840023,11197.920563299327,3831.714057602282,-6837.624502481173,-657.1268130188405,4029.9609503446964,-2311.2311313388727,979.1764116658888,-3064.0426654391504,-9184.797177397879,-337.7653628063339,7379.533735651474,107.85763233268493,372.8385360246529,-6043.607956072423,-868.1111462860582,5979.355228194855,-3085.608462469033,-6433.958335173731,-11360.788631932968,16186.008501782424,8254.015502918584,-9627.75088205385,-1939.0319698308492,-20.977645196288396,6446.684290009566,-4372.8555336019335,4559.770284366185,-13794.476243880294,6516.086230390883,8250.44579307144,-5202.738557648747,-482.9959170538233,3538.5185972760637,4477.427233351778,-7310.644549343249,4063.3820406654563,7157.23522780739,-16484.09402623498,5671.37761293494,2733.763790817513,-2120.6243606039284,966.2883551861933,-5223.593814626579,4016.439210663837,-2332.252136945956,3517.807780258848,-569.4209389933333,-11732.641997547196,1460.9948777054608,5302.571438101529,3680.423985887924,-4813.9208545963065,-1542.8996869776508,2773.686872684125,-46.07572943255278,-804.7958914124596,-13370.617049581788,2134.780541291617,6195.242533975744,-1806.7922249110418,-1743.0493616012711,4329.297176305216,-7229.8865762260675,102.70731661139631,7847.234374459809,-2073.9463496364565,-1084.0196795215172,-2747.071322734958,-514.5898908924229,5152.789631217358,2847.135249838969,-5199.092718764515,4708.622930501909,-4975.806238406752,8288.666717701053,-6104.157597333264,-2883.705820890898,277.24738942453496,111.09430153519686,-2971.9756200207353,4460.665604133952,-5127.718414149802,2949.4928631352973,1981.797543286061,-618.192928714477,50.45786921814919,6696.686211185135,-20363.593119711575,4275.508197442995,6073.624576535712,4383.066093637413,-3518.213893306116,-10985.426007987906,3458.409368843541,5.607889558866845,2719.508890315555,1662.8409305150424,-11120.063141872051,11810.230257166875,1813.1641692538005,2321.500406210831,-1134.7923262698512,-4342.040176704165,2946.5593111976036,3589.527787651247,6746.363901346111,-8267.046177839156,-5744.794258385688,8979.26535653412,-2912.7057434763265,4544.687531367133,-3423.9343863850513,-1627.8730293996475,4316.735226611098,3606.0404773276696,6350.11728113209,-15397.268084253208,-656.6486168553097,1150.1023411540255,12349.914340776297,-12565.443777108041,-2688.1175295394314,3093.063113274845,-1918.1377202862607,-4365.915344286889,6187.473262691339,-690.2387426684218,-3697.3082285719556,-8666.492551910756,10140.2438519615,-71.63273147544001,-1946.4776342425973,-4097.363610506466,6061.314945869064,2885.4494696482107,1375.4778097241206,-11841.215892427468,6545.728278630662,5095.143068136,5849.567732588697,-514.5664719297608,-9835.11877726201,5926.795149053211,4970.993485295873,-2372.0382307392056,1437.2616350454293,-10630.735176535156,3428.641239333495,3211.6812220762117,-43.52230814657512,-4664.798144960461,4581.713099991037,-48.61225274097567,830.3875239432277,-5693.128949238267,-1389.6922041732855,173.3575297049986,3228.618901655724,-2065.3791850706366,2079.5212770921003,-9842.772591899697,375.0953952670173,1597.521863556334,-4480.892315672828,7858.391547340953,-3870.675045975612,-4434.820449125451,-5592.787089793052,10346.358769117853,-476.06554557631205,3414.4427205303346,-3760.062995988598,-6691.841721480441,5410.887142517143,-3139.716866261359,-13079.69154891725,3233.292942422673,1517.0379105197321,6412.40296219977,-724.0420893892237,-3561.14612155849,-9508.012204519975,6414.427130803205,3476.817526713834,-146.19280718321338,-10639.733175628802,9258.285063873105,-8133.432550182833,5701.450094994841,6206.086427899081,-1247.8469206699488,3585.3721151001873,-3162.9660511948764,4923.30944026903,-3507.1069864096285,-10386.347741822381,3180.407274434351,-1142.5462617426556,273.1630574378866,343.81872663994477,-2620.689759478001,8219.496363436489,-5789.693979764258,-1476.3025328615377,6364.588059335634,-11088.66126119165,7065.765917821285,-3604.204968868684,6777.161535054079,856.187719438252,2863.9008824386938,-11520.596297591665,12865.233307991866,5735.065530877222,-12175.15141329857,-3383.208450056993,7107.511086472263,8824.815466993758,-4395.045346869501,-2975.4256974795226,-838.8917030478577,4475.603995710583,6299.285482785293,611.9141507757081,-43.63211521440171,-9290.754257919987,6012.79716921406,9352.965930100014,-3565.09428033703,-5114.766552414848,6098.77746917908,1109.3626644463823,825.3307511423482,6626.263591814112,-7913.260394948835,-12359.121501303502,5407.218964370982,11982.951826196597,-2199.631146773739,-4222.754453335939,-5774.4003831346345,8496.058095115843,6725.405766405029,-7817.010558913392,-2237.678238403433,3387.647572445906,-6219.373604720668,7296.026231602927,9923.028548722183,-3666.9651148394537,-4987.5653628120135,-4518.404420285931,13354.310719916164,-1063.3774231446937,-15300.934454049102,2979.933473049962,4566.292228864708,10097.787506272301,-3751.026905096822,-2803.303337197239,-5756.54088260964,6624.798263213527,9065.369981960823,-3119.195955477807,-9976.281152486425,3637.886879875838,2314.289865948909,-1649.3069710606173,12431.555198417827,-7811.956473081646,-5494.445800599367,6983.311092153078,1781.5327707072167,-5698.632710696671,-12511.29026662584,5116.217212375609,12426.332125628081,6277.346534271558,-12351.365697484305,-2887.5993003443423,-674.4292258729934,5254.173451884,3291.735688164158,-5424.315707016754,-11071.164898065903,3625.792445489212,11637.492034013192,-5036.076821903741,2771.94415919859,-4428.327633793851,219.05768727172034,5896.356038356182,-41.74440692724107,-12554.80392096489,8448.284911191002,10587.288792902878,828.7703659635769,1276.42605118702,-9994.362291905829,-6788.712066471186,11603.230414744075,8701.055948040179,-657.4002707235293,-19194.612210424326,1145.807354617802,13070.813093655994,-6804.469720795696,-1912.4455369761565,2792.0145063986147,-936.6530700860103,-3978.687134504348,10995.800212263022,-6504.7786598222765,-13537.709146514611,5061.299538845507,6447.746097784748,-983.4369324090643,-538.6590591246434,-3700.688818046163,53.63735178916977,-1815.8867599546988,8947.046496586307,-10825.261346221616,-4109.016483429706,-5355.602229205703,13984.919501406008,-991.8109646990456,-7846.275817755158,-3964.7842241701023,317.1088260864079,8123.861170405513,7840.657375100249,-18313.626679540925,-3525.6155353978647,16623.35493206244,-2782.3648378208086,-3867.673431985539,2356.9349794179975,-684.9227340241423,-5636.429286794127,8984.387844851804,-5773.900595068953,-6611.427263065564,3394.7872264358202,7496.804708749634,-6847.545353567203,7226.464677962748,-5597.981570749512,-5212.06351302753,-3969.3405176106144,7394.461918841775,-9615.73598214632,-6160.144472340254,4133.753061700138,4664.0867435629525,-602.8402293327209,4946.491132120311,-8016.975924268688,-8714.832896827038,7531.697042449495,13708.722221284774,-14346.822490799124,-12064.247998850627,13349.410494325086,14645.66242632959,-2265.780162864301,-2308.336174559569,-2502.4420131484612,-6014.725535233209,2350.857663336858,6062.090359177374,-16558.817334136726,6773.197808591762,5990.224707119116,2449.8692815026957,1681.328559751475,-1358.256115652199,-3608.7330565896227,1109.5127488635403,2631.8588315935262,8315.242533624865,-13351.827838725376,-5144.039730878462,1688.6288756689328,8290.64831662032,-2614.0089936356576,2582.565985567208,852.0862464988151,-626.7741555595721,9.676604631562041,5985.209159195137,-19527.219470545515,17046.47674402702,8143.284457576196,394.3282604771567,269.29528019936055,-9154.353446701665,-3523.480924134111,12679.020780033248,-4112.810582560357,-6983.078899805074,-10277.967541021479,8859.205270938826,12824.481577077599,-2964.525869730575,-5779.969564310671,8576.071764173419,-1789.7644528387923,4726.476221753841,-6173.179567367645,-2380.3499738994406,-9992.961170558048,10330.048649522523,7385.965112592542,-2694.4161571514846,545.6480930157703,-5890.286667543015,1630.254211574183,5985.249779513085,3891.192409528845,-14016.39897738097,6614.683885140385,6550.32573763993,4717.4368273816335,-8009.3979517429725,1228.3510755266504,-45.06546991060976,320.9146366528868,7052.052250032799,-15277.494968896232,-6098.165535439674,9759.063740613612,11249.953825885888,-4702.301293153323,-4095.5584665855636,-1264.3156384174572,637.9141976542592,2264.864532360256,-3771.168948282329,6533.24424398426,-16215.964479462029,13836.869562647513,6622.13485074054,-8872.577731063866,7521.188719697459,3763.1467178213934,-3680.2609714456103,2425.5190743492567,2160.862797996834,-4639.158566660991,-6315.400168161036,10754.681321595099,-1775.1999224833569,-1320.2908129756036,-2269.6289412133397,-9423.31554422622,2965.7955342125997,11012.934341525764,3344.3701255792544,-25819.259684644076,110.24208274822827,14977.797272637185,1001.6149802472106,3865.201557214324,-12.624275148797606,-2757.670849017506,8444.830584485693,-2179.4302038641904,-10543.403289178434,-6241.306303796742,4876.265791274123,11477.312251486543,-7624.698214663281,-6190.116541397321,2537.842693010892,3108.956768409283,4113.802439007822,3811.267820106771,-20446.582288982518,-5812.782406712342,20459.71626834571,-918.1270547944016,-310.6781034212714,-3376.9975732173943,-2203.9996909971537,3035.8779812730645,153.95995680242248,5681.049052283412,-14284.72603640978,3226.2370251741722,6435.199652423025,346.6156495925721,1500.509890817774,-1677.9778645432775,-8465.518066083096,976.0593977029318,10131.954480650484,-13488.234014117821,-956.7880809815192,3491.403998751027,3794.464760282514,2180.0505927542563,-2024.909727901893,2046.6944396093566,-1805.1431263681102,-1591.5760489732172,341.65416027993723,-2778.8806594707644,-2661.299633639223,9464.345942629472,-1237.0393168763496,-2331.6107218184698,2416.4707955628087,-2807.1694126213797,-3024.2942632475065,12743.84617594719,4546.988243895822,-13022.633572373621,-3738.8201849739744,8947.999850779328,7915.769068061603,-3245.562691878926,-8889.07935584552,7531.196110144152,-4044.362145372219,7787.654736537941,-1187.9922570001022,-4054.309120450707,2485.629022389866,950.1376426751938,2704.2557968544174,-4489.691706702361,-536.0783444139365,-3151.8027943286993,5473.895241295512,4631.473661105931,-11411.816304247848,-7527.402194741301,15279.74782082456,3901.5819629350635,2510.12811003424,-2038.2470698954974,-611.6646115304819,-139.55607274935718,11583.226791606976,-10919.869255724481,-12722.36041619117,-4247.846903040495,23207.859699386838,-1096.1911377464858,-3832.6939976135704,-4667.2860649388385,-966.8571568703503,4778.269746795693,-1040.761791457844,4938.577450194175,-11873.740583637107,4851.601143712374,2904.581216934565,-3719.373930737971,9288.23401433725,-7037.968378307393,-3535.9416086681504,1724.1147611908975,7447.715367374443,-7576.337594493674,-6643.5903278281285,2097.9710744464446,15436.219396818102,-986.2580626225922,-5362.474920711408,-4486.34017830226,-483.4231623207654,7004.491479175277,2627.941490027477,-12185.602640802354,3338.166806813506,703.2977604840723,4937.990427169041,2670.948656188472,439.48640737754715,-8211.097947915205,5581.087872889063,-2453.3906558980943,246.10293072698383,292.62856234930194,-3797.406093471134,-4325.601026843569,-2022.127898094454,9401.742173407569,-5203.3420280131595,-1739.834222639323,1852.2975832907628,98.77505495682941,2227.2964346985937,-1720.878036091041,-2351.7937214749422,-5347.025104110827,11078.3486639498,-2875.1217888546935,-5124.341697335459,-6134.720544134833,9813.45825370711,-1688.0401723932573,-1755.0272058424775,-3196.5353899191305,5158.059056110976,2971.758496182886,15.793191068715496,-1821.439857797351,-554.7332155612952,-975.1627894747683,3922.3837639621834,4217.921909803954,-2667.043144707978,-10677.828162497033,2948.205144253919,4626.751552346012,9134.09855294757,-6254.151810042253,-2600.849599272494,184.21253385204471,3497.4076503701253,-5082.534367282622,-11979.658357645412,7329.080604533844,5191.159042870827,3374.66046126316,1266.1455959882944,-1111.0167362137497,-10908.776284873487,7731.342721357724,1310.4297659502622,-1454.230228914061,-14224.223022470647,339.1304490998159,9099.199211387757,4356.995860136089,-4346.621466350156,-7284.8225447080995,-4313.884329951684,6007.910845667128,17437.725862420917,-9665.38056979295,-12516.718065228746,7138.933950710827,14397.928140872975,-5617.679874424682,-5424.17135592382,-1111.7318582651728,