,value,experiments
0,2097152.0,
1,2097152.0,
2,2097152.0,
3,2156701.0,
4,2156690.0,
5,2156625.0,
6,2156724.0,
7,2156668.0,
8,2156763.0,
9,2156711.0,
10,2156632.0,
11,2156733.0,
12,2131648.0,
13,2131688.0,
14,2131699.0,
15,2131694.0,
16,2131710.0,
17,2099488.0,
18,2099399.0,
19,2099495.0,
20,2099415.0,
21,2099494.0,
22,2103645.0,
23,2103824.0,
24,2103864.0,
25,2103758.0,
26,2103736.0,
27,2103733.0,
28,2103864.0,
29,2103680.0,
30,2103671.0,
31,2103736.0,
32,2103910.0,
33,2103773.0,
34,2103729.0,
35,2103884.0,
36,2103759.0,
37,2103751.0,
38,2103681.0,
39,2103691.0,
40,2103861.0,
41,2103660.0,
42,2103807.0,
43,2103874.0,
44,2103939.0,
45,2103728.0,
46,2103741.0,
47,2103841.0,
48,2103797.0,
49,2103746.0,
50,2103682.0,
51,2103926.0,
52,2103696.0,
53,2103746.0,
54,2103736.0,
55,2103798.0,
56,2103874.0,
57,2103716.0,
58,2103906.0,
59,2103807.0,
60,2103727.0,
61,2103747.0,
62,2103881.0,
63,2103766.0,
64,2103719.0,
65,2103761.0,
66,2103713.0,
67,2103751.0,
68,2103697.0,
69,2103741.0,
70,2103714.0,
71,2103742.0,
72,2103753.0,
73,2103923.0,
74,2103670.0,
75,2103722.0,
76,2103868.0,
77,2103901.0,
78,2103707.0,
79,2103726.0,
80,2103738.0,
81,2103803.0,
82,2103843.0,
83,2103688.0,
84,2103865.0,
85,2103718.0,
86,2103751.0,
87,2103734.0,
88,2103747.0,
89,2103827.0,
90,2103758.0,
91,2103710.0,
92,2103743.0,
93,2103801.0,
94,2103772.0,
95,2103735.0,
96,2103637.0,
97,2103920.0,
98,2103726.0,
99,2103708.0,
100,2103771.0,
101,2103717.0,
102,2103717.0,
103,2103890.0,
104,2103753.0,
105,2103778.0,
106,2103748.0,
107,2103826.0,
108,2103911.0,
109,2103701.0,
110,2103762.0,
111,2103663.0,
112,2103836.0,
113,2103772.0,
114,2103730.0,
115,2103757.0,
116,2103712.0,
117,2103676.0,
118,2103748.0,
119,2103757.0,
120,2103703.0,
121,2103600.0,
122,2103749.0,
123,2103776.0,
124,2103779.0,
125,2103748.0,
126,2103664.0,
127,2103740.0,
128,2103649.0,
129,2103861.0,
130,2103744.0,
131,2103710.0,
132,2103800.0,
133,2103696.0,
134,2103659.0,
135,2103727.0,
136,2103666.0,
137,2103665.0,
138,2103703.0,
139,2103798.0,
140,2103657.0,
141,2103750.0,
142,2103700.0,
143,2103634.0,
144,2103701.0,
145,2103879.0,
146,2103688.0,
147,2103722.0,
148,2103857.0,
149,2103657.0,
150,2103661.0,
151,2103717.0,
152,2103908.0,
153,2103668.0,
154,2103713.0,
155,2103653.0,
156,2103876.0,
157,2103711.0,
158,2103828.0,
159,2103714.0,
160,2103696.0,
161,2103898.0,
162,2103696.0,
163,2103823.0,
164,2103640.0,
165,2103716.0,
166,2103601.0,
167,2103675.0,
168,2103772.0,
169,2103814.0,
170,2103781.0,
171,2103641.0,
172,2103667.0,
173,2103856.0,
174,2103659.0,
175,2103688.0,
176,2103721.0,
177,2103665.0,
178,2103673.0,
179,2103660.0,
180,2103696.0,
181,2103654.0,
182,2103689.0,
183,2103569.0,
184,2103707.0,
185,2103872.0,
186,2103679.0,
187,2103727.0,
188,2103661.0,
189,2103683.0,
190,2103587.0,
191,2103567.0,
192,2103619.0,
193,2103606.0,
194,2103652.0,
195,2103849.0,
196,2103699.0,
197,2103848.0,
198,2103817.0,
199,2103673.0,
200,2103745.0,
201,2103722.0,
202,2103762.0,
203,2103664.0,
204,2103652.0,
205,2103648.0,
206,2103688.0,
207,2103662.0,
208,2103702.0,
209,2103815.0,
210,2103617.0,
211,2103650.0,
212,2103930.0,
213,2103866.0,
214,2103725.0,
215,2103894.0,
216,2103912.0,
217,2103955.0,
218,2103588.0,
219,2103795.0,
220,2103846.0,
221,2103749.0,
222,2103721.0,
223,2103603.0,
224,2103704.0,
225,2103639.0,
226,2103605.0,
227,2103594.0,
228,2103643.0,
229,2103659.0,
230,2103885.0,
231,2103955.0,
232,2103693.0,
233,2103654.0,
234,2103638.0,
235,2103608.0,
236,2103646.0,
237,2103813.0,
238,2103793.0,
239,2103871.0,
240,2103693.0,
241,2103606.0,
242,2103770.0,
243,2103720.0,
244,2103817.0,
245,2103593.0,
246,2103632.0,
247,2103772.0,
248,2103717.0,
249,2103756.0,
250,2103893.0,
251,2103663.0,
252,2103708.0,
253,2103677.0,
254,2103735.0,
255,2103682.0,
256,2103640.0,
257,2103589.0,
258,2103613.0,
259,2103697.0,
260,2103858.0,
261,2103605.0,
262,2103608.0,
263,2103680.0,
264,2103628.0,
265,2103580.0,
266,2103660.0,
267,2103833.0,
268,2103802.0,
269,2103788.0,
270,2103622.0,
271,2103626.0,
272,2103640.0,
273,2103670.0,
274,2103607.0,
275,2103582.0,
276,2103667.0,
277,2103724.0,
278,2103708.0,
279,2103625.0,
280,2103854.0,
281,2103614.0,
282,2103634.0,
283,2103825.0,
284,2103695.0,
285,2103635.0,
286,2103670.0,
287,2103663.0,
288,2103677.0,
289,2103696.0,
290,2103595.0,
291,2103622.0,
292,2103594.0,
293,2103558.0,
294,2103671.0,
295,2103713.0,
296,2103640.0,
297,2103624.0,
298,2103823.0,
299,2103837.0,
300,2103586.0,
301,2103752.0,
302,2103746.0,
303,2103889.0,
304,2103856.0,
305,2103662.0,
306,2103627.0,
307,2103623.0,
308,2103605.0,
309,2103610.0,
310,2103807.0,
311,2103749.0,
312,2103573.0,
313,2103756.0,
314,2103553.0,
315,2103658.0,
316,2103579.0,
317,2103637.0,
318,2103610.0,
319,2103659.0,
320,2103881.0,
321,2103814.0,
322,2103643.0,
323,2103649.0,
324,2103635.0,
325,2103717.0,
326,2103595.0,
327,2103640.0,
328,2103669.0,
329,2103711.0,
330,2103661.0,
331,2103705.0,
332,2103645.0,
333,2103651.0,
334,2103694.0,
335,2103612.0,
336,2103676.0,
337,2103667.0,
338,2103586.0,
339,2103669.0,
340,2103633.0,
341,2103714.0,
342,2103665.0,
343,2103686.0,
344,2103642.0,
345,2103678.0,
346,2103686.0,
347,2103551.0,
348,2103649.0,
349,2103666.0,
350,2103765.0,
351,2103668.0,
352,2103610.0,
353,2103566.0,
354,2103622.0,
355,2103758.0,
356,2103628.0,
357,2103668.0,
358,2103625.0,
359,2103598.0,
360,2103677.0,
361,2103695.0,
362,2103687.0,
363,2103824.0,
364,2103812.0,
365,2103781.0,
366,2103798.0,
367,2103860.0,
368,2103685.0,
369,2103733.0,
370,2103688.0,
371,2103581.0,
372,2103590.0,
373,2103642.0,
374,2103621.0,
375,2103884.0,
376,2103811.0,
377,2103761.0,
378,2103549.0,
379,2103604.0,
380,2103618.0,
381,2103812.0,
382,2103832.0,
383,2103564.0,
384,2103861.0,
385,2103520.0,
386,2103627.0,
387,2103659.0,
388,2103865.0,
389,2103766.0,
390,2103771.0,
391,2103740.0,
392,2103637.0,
393,2103570.0,
394,2103686.0,
395,2103779.0,
396,2103561.0,
397,2103652.0,
398,2103650.0,
399,2103810.0,
400,2103738.0,
401,2103728.0,
402,2103686.0,
403,2103621.0,
404,2103601.0,
405,2103786.0,
406,2103642.0,
407,2103584.0,
408,2103522.0,
409,2103585.0,
410,2103651.0,
411,2103802.0,
412,2103815.0,
413,2103594.0,
414,2103652.0,
415,2103672.0,
416,2103655.0,
417,2103784.0,
418,2103776.0,
419,2103650.0,
420,2103767.0,
421,2103836.0,
422,2103835.0,
423,2103839.0,
424,2103650.0,
425,2103802.0,
426,2103706.0,
427,2103840.0,
428,2103772.0,
429,2103620.0,
430,2103803.0,
431,2103553.0,
432,2103616.0,
433,2103656.0,
434,2103692.0,
435,2103641.0,
436,2103622.0,
437,2103584.0,
438,2103646.0,
439,2103632.0,
440,2103611.0,
441,2103653.0,
442,2103816.0,
443,2103856.0,
444,2103774.0,
445,2103864.0,
446,2103566.0,
447,2103788.0,
448,2103778.0,
449,2103837.0,
450,2103649.0,
451,2103660.0,
452,2103601.0,
453,2103599.0,
454,2103676.0,
455,2103682.0,
456,2103663.0,
457,2103622.0,
458,2103623.0,
459,2103559.0,
460,2103613.0,
461,2103683.0,
462,2103738.0,
463,2103696.0,
464,2103715.0,
465,2103737.0,
466,2103637.0,
467,2103833.0,
468,2103595.0,
469,2103603.0,
470,2103613.0,
471,2103591.0,
472,2103815.0,
473,2103840.0,
474,2103686.0,
475,2103711.0,
476,2103804.0,
477,2103721.0,
478,2103828.0,
479,2103650.0,
480,2103691.0,
481,2103616.0,
482,2103627.0,
483,2103603.0,
484,2103648.0,
485,2103583.0,
486,2103638.0,
487,2103632.0,
488,2103723.0,
489,2103744.0,
490,2103848.0,
491,2103646.0,
492,2103600.0,
493,2103616.0,
494,2103668.0,
495,2103692.0,
496,2103752.0,
497,2103737.0,
498,2103801.0,
499,2103807.0,
500,2103635.0,
501,2103642.0,
502,2103642.0,
503,2103579.0,
504,2103698.0,
505,2103543.0,
506,2103676.0,
507,2103676.0,
508,2103675.0,
509,2103664.0,
510,2103625.0,
511,2103679.0,
512,2103573.0,
513,2103639.0,
514,2103693.0,
515,2103663.0,
516,2103820.0,
517,2103759.0,
518,2103665.0,
519,2103655.0,
520,2103623.0,
521,2103672.0,
522,2103627.0,
523,2103909.0,
524,2103748.0,
525,2103597.0,
526,2103598.0,
527,2103663.0,
528,2103623.0,
529,2103625.0,
530,2103572.0,
531,2103756.0,
532,2103627.0,
533,2103723.0,
534,2103636.0,
535,2103601.0,
536,2103609.0,
537,2103629.0,
538,2103672.0,
539,2103902.0,
540,2103861.0,
541,2103646.0,
542,2103627.0,
543,2103597.0,
544,2103600.0,
545,2103635.0,
546,2103646.0,
547,2103716.0,
548,2103630.0,
549,2103628.0,
550,2103547.0,
551,2103649.0,
552,2103840.0,
553,2103732.0,
554,2103706.0,
555,2103761.0,
556,2103802.0,
557,2103844.0,
558,2103810.0,
559,2103838.0,
560,2103653.0,
561,2103734.0,
562,2103642.0,
563,2103669.0,
564,2103619.0,
565,2103833.0,
566,2103813.0,
567,2103681.0,
568,2103675.0,
569,2103704.0,
570,2103629.0,
571,2103620.0,
572,2103657.0,
573,2103830.0,
574,2103704.0,
575,2103712.0,
576,2103889.0,
577,2103770.0,
578,2103853.0,
579,2103723.0,
580,2103781.0,
581,2103644.0,
582,2103806.0,
583,2103654.0,
584,2103664.0,
585,2103754.0,
586,2103831.0,
587,2103687.0,
588,2103638.0,
589,2103656.0,
590,2103550.0,
591,2103684.0,
592,2103681.0,
593,2103585.0,
594,2103641.0,
595,2103711.0,
596,2103625.0,
597,2103566.0,
598,2103527.0,
599,2103877.0,
600,2103768.0,
601,2103606.0,
602,2103575.0,
603,2103654.0,
604,2103567.0,
605,2103583.0,
606,2103805.0,
607,2103704.0,
608,2103880.0,
609,2103638.0,
610,2103730.0,
611,2103863.0,
612,2103656.0,
613,2103746.0,
614,2103584.0,
615,2103579.0,
616,2103606.0,
617,2103630.0,
618,2103752.0,
619,2103594.0,
620,2103578.0,
621,2103665.0,
622,2103714.0,
623,2103684.0,
624,2103614.0,
625,2103651.0,
626,2103593.0,
627,2103590.0,
628,2103601.0,
629,2103554.0,
630,2103639.0,
631,2103567.0,
632,2103552.0,
633,2103670.0,
634,2103824.0,
635,2103646.0,
636,2103781.0,
637,2103586.0,
638,2103637.0,
639,2103575.0,
640,2103765.0,
641,2103754.0,
642,2103758.0,
643,2103676.0,
644,2103619.0,
645,2103608.0,
646,2103657.0,
647,2103787.0,
648,2103812.0,
649,2103737.0,
650,2103557.0,
651,2103686.0,
652,2103620.0,
653,2103656.0,
654,2103835.0,
655,2103776.0,
656,2103746.0,
657,2103640.0,
658,2103547.0,
659,2103558.0,
660,2103556.0,
661,2103493.0,
662,2103631.0,
663,2103795.0,
664,2103708.0,
665,2103765.0,
666,2103699.0,
667,2103558.0,
668,2103646.0,
669,2103573.0,
670,2103770.0,
671,2103781.0,
672,2103718.0,
673,2103550.0,
674,2103599.0,
675,2103569.0,
676,2103641.0,
677,2103582.0,
678,2103637.0,
679,2103690.0,
680,2103831.0,
681,2103590.0,
682,2103675.0,
683,2103668.0,
684,2103609.0,
685,2103604.0,
686,2103821.0,
687,2103649.0,
688,2103737.0,
689,2103677.0,
690,2103811.0,
691,2103812.0,
692,2103622.0,
693,2103592.0,
694,2103628.0,
695,2103553.0,
696,2103823.0,
697,2103767.0,
698,2103544.0,
699,2103604.0,
700,2103797.0,
701,2103556.0,
702,2103668.0,
703,2103672.0,
704,2103634.0,
705,2103788.0,
706,2103737.0,
707,2103620.0,
708,2103645.0,
709,2103857.0,
710,2103708.0,
711,2103599.0,
712,2103764.0,
713,2103595.0,
714,2103599.0,
715,2103635.0,
716,2103607.0,
717,2103775.0,
718,2103679.0,
719,2103714.0,
720,2103700.0,
721,2103739.0,
722,2103610.0,
723,2103538.0,
724,2103838.0,
725,2103764.0,
726,2103729.0,
727,2103647.0,
728,2103570.0,
729,2103583.0,
730,2103687.0,
731,2103557.0,
732,2103750.0,
733,2103601.0,
734,2103629.0,
735,2103658.0,
736,2103607.0,
737,2103718.0,
738,2103715.0,
739,2103661.0,
740,2103740.0,
741,2103756.0,
742,2103787.0,
743,2103767.0,
744,2103738.0,
745,2103612.0,
746,2103715.0,
747,2103689.0,
748,2103698.0,
749,2103640.0,
750,2103564.0,
751,2103631.0,
752,2103572.0,
753,2103584.0,
754,2103671.0,
755,2103635.0,
756,2103675.0,
757,2103538.0,
758,2103626.0,
759,2103618.0,
760,2103534.0,
761,2103576.0,
762,2103696.0,
763,2103755.0,
764,2103724.0,
765,2103641.0,
766,2103534.0,
767,2103583.0,
768,2103751.0,
769,2103571.0,
770,2103817.0,
771,2103658.0,
772,2103733.0,
773,2103716.0,
774,2103873.0,
775,2103808.0,
776,2103758.0,
777,2103595.0,
778,2103608.0,
779,2103583.0,
780,2103577.0,
781,2103568.0,
782,2103814.0,
783,2103770.0,
784,2103579.0,
785,2103657.0,
786,2103605.0,
787,2103556.0,
788,2103589.0,
789,2103574.0,
790,2103778.0,
791,2103717.0,
792,2103532.0,
793,2103769.0,
794,2103619.0,
795,2103652.0,
796,2103659.0,
797,2103617.0,
798,2103600.0,
799,2103718.0,
800,2103708.0,
801,2103786.0,
802,2103636.0,
803,2103879.0,
804,2103753.0,
805,2103801.0,
806,2103752.0,
807,2103759.0,
808,2103840.0,
809,2103754.0,
810,2103808.0,
811,2103747.0,
812,2103611.0,
813,2103518.0,
814,2103647.0,
815,2103822.0,
816,2103729.0,
817,2103733.0,
818,2103704.0,
819,2103766.0,
820,2103752.0,
821,2103775.0,
822,2103582.0,
823,2103836.0,
824,2103792.0,
825,2103779.0,
826,2103821.0,
827,2103790.0,
828,2103821.0,
829,2103581.0,
830,2103566.0,
831,2103699.0,
832,2103593.0,
833,2103740.0,
834,2103578.0,
835,2103597.0,
836,2103598.0,
837,2103548.0,
838,2103602.0,
839,2103616.0,
840,2103637.0,
841,2103586.0,
842,2103496.0,
843,2103625.0,
844,2103589.0,
845,2103738.0,
846,2103575.0,
847,2103629.0,
848,2103719.0,
849,2103745.0,
850,2103572.0,
851,2103779.0,
852,2103599.0,
853,2103657.0,
854,2103631.0,
855,2103559.0,
856,2103554.0,
857,2103634.0,
858,2103516.0,
859,2103766.0,
860,2103731.0,
861,2103804.0,
862,2103782.0,
863,2103762.0,
864,2103756.0,
865,2103743.0,
866,2103580.0,
867,2103530.0,
868,2103555.0,
869,2103542.0,
870,2103565.0,
871,2103617.0,
872,2103561.0,
873,2103686.0,
874,2103792.0,
875,2103773.0,
876,2103693.0,
877,2103552.0,
878,2103629.0,
879,2103608.0,
880,2103781.0,
881,2103720.0,
882,2103714.0,
883,2103614.0,
884,2103602.0,
885,2103808.0,
886,2103613.0,
887,2103656.0,
888,2103776.0,
889,2103590.0,
890,2103628.0,
891,2103677.0,
892,2103760.0,
893,2103760.0,
894,2103653.0,
895,2103739.0,
896,2103596.0,
897,2103559.0,
898,2103733.0,
899,2103571.0,
900,2103772.0,
901,2103818.0,
902,2103630.0,
903,2103606.0,
904,2103561.0,
905,2103549.0,
906,2103714.0,
907,2103640.0,
908,2103800.0,
909,2103704.0,
910,2103699.0,
911,2103824.0,
912,2103702.0,
913,2103730.0,
914,2103733.0,
915,2103614.0,
916,2103630.0,
917,2103621.0,
918,2103643.0,
919,2103792.0,
920,2103618.0,
921,2103622.0,
922,2103618.0,
923,2103580.0,
924,2103576.0,
925,2103842.0,
926,2103613.0,
927,2103621.0,
928,2103568.0,
929,2103802.0,
930,2103758.0,
931,2103614.0,
932,2103573.0,
933,2103640.0,
934,2103621.0,
935,2103557.0,
936,2103809.0,
937,2103607.0,
938,2103636.0,
939,2103666.0,
940,2103665.0,
941,2103599.0,
942,2103598.0,
943,2103571.0,
944,2103617.0,
945,2103652.0,
946,2103659.0,
947,2103565.0,
948,2103650.0,
949,2103810.0,
950,2103596.0,
951,2103611.0,
952,2103760.0,
953,2103597.0,
954,2103606.0,
955,2103682.0,
956,2103664.0,
957,2103649.0,
958,2103834.0,
959,2103602.0,
960,2103581.0,
961,2103441.0,
962,2103570.0,
963,2103846.0,
964,2103569.0,
965,2103513.0,
966,2103595.0,
967,2103635.0,
968,2103816.0,
969,2103617.0,
970,2103710.0,
971,2103765.0,
972,2103657.0,
973,2103579.0,
974,2103726.0,
975,2103727.0,
976,2103590.0,
977,2103606.0,
978,2103664.0,
979,2103594.0,
980,2103675.0,
981,2103583.0,
982,2103624.0,
983,2103689.0,
984,2103706.0,
985,2103615.0,
986,2103538.0,
987,2103602.0,
988,2103617.0,
989,2103757.0,
990,2103588.0,
991,2103539.0,
992,2103690.0,
993,2103572.0,
994,2103791.0,
995,2103638.0,
996,2103488.0,
997,2103747.0,
998,2103559.0,
999,2103597.0,
1000,2103627.0,
1001,2103555.0,
1002,2103572.0,
1003,2103804.0,
1004,2103616.0,
1005,2103667.0,
1006,2103699.0,
1007,2103769.0,
1008,2103528.0,
1009,2103765.0,
1010,2103749.0,
1011,2103606.0,
1012,2103625.0,
1013,2103650.0,
1014,2103625.0,
1015,2103577.0,
1016,2103578.0,
1017,2103569.0,
1018,2103521.0,
1019,2103634.0,
1020,2103631.0,
1021,2103575.0,
1022,2103598.0,
1023,2103728.0,
1024,2103636.0,
1025,2103630.0,
1026,2103646.0,
1027,2103614.0,
1028,2103568.0,
1029,2103617.0,
1030,2103825.0,
1031,2103839.0,
1032,2103748.0,
1033,2103635.0,
1034,2103659.0,
1035,2103616.0,
1036,2103795.0,
1037,2103657.0,
1038,2103659.0,
1039,2103660.0,
1040,2103639.0,
1041,2103672.0,
1042,2103521.0,
1043,2103630.0,
1044,2103653.0,
1045,2103690.0,
1046,2103744.0,
1047,2103625.0,
1048,2103811.0,
1049,2103808.0,
1050,2103789.0,
1051,2103570.0,
1052,2103642.0,
1053,2103565.0,
1054,2103738.0,
1055,2103825.0,
1056,2103652.0,
1057,2103623.0,
1058,2103611.0,
1059,2103615.0,
1060,2103605.0,
1061,2103657.0,
1062,2103529.0,
1063,2103655.0,
1064,2103666.0,
1065,2103688.0,
1066,2103601.0,
1067,2103611.0,
1068,2103620.0,
1069,2103797.0,
1070,2103616.0,
1071,2103655.0,
1072,2103639.0,
1073,2103627.0,
1074,2103687.0,
1075,2103657.0,
1076,2103707.0,
1077,2103709.0,
1078,2103641.0,
1079,2103733.0,
1080,2103783.0,
1081,2103629.0,
1082,2103780.0,
1083,2103692.0,
1084,2103797.0,
1085,2103755.0,
1086,2103750.0,
1087,2103614.0,
1088,2103515.0,
1089,2103570.0,
1090,2103585.0,
1091,2103591.0,
1092,2103660.0,
1093,2103645.0,
1094,2103588.0,
1095,2103670.0,
1096,2103612.0,
1097,2103653.0,
1098,2103618.0,
1099,2103590.0,
1100,2103612.0,
1101,2103591.0,
1102,2103537.0,
1103,2103584.0,
1104,2103614.0,
1105,2103634.0,
1106,2103866.0,
1107,2103606.0,
1108,2103516.0,
1109,2103575.0,
1110,2103741.0,
1111,2103670.0,
1112,2103702.0,
1113,2103821.0,
1114,2103624.0,
1115,2103706.0,
1116,2103669.0,
1117,2103764.0,
1118,2103602.0,
1119,2103637.0,
1120,2103864.0,
1121,2103784.0,
1122,2103597.0,
1123,2103590.0,
1124,2103591.0,
1125,2103590.0,
1126,2103650.0,
1127,2103539.0,
1128,2103605.0,
1129,2103566.0,
1130,2103538.0,
1131,2103596.0,
1132,2103583.0,
1133,2103591.0,
1134,2103546.0,
1135,2103550.0,
1136,2103642.0,
1137,2103585.0,
1138,2103546.0,
1139,2103548.0,
1140,2103609.0,
1141,2103574.0,
1142,2103541.0,
1143,2103578.0,
1144,2103486.0,
1145,2103609.0,
1146,2103721.0,
1147,2103602.0,
1148,2103532.0,
1149,2103740.0,
1150,2103529.0,
1151,2103555.0,
1152,2103562.0,
1153,2103708.0,
1154,2103564.0,
1155,2103549.0,
1156,2103570.0,
1157,2103885.0,
1158,2103606.0,
1159,2103647.0,
1160,2103791.0,
1161,2103631.0,
1162,2103554.0,
1163,2103539.0,
1164,2103582.0,
1165,2103597.0,
1166,2103610.0,
1167,2103577.0,
1168,2103591.0,
1169,2103561.0,
1170,2103575.0,
1171,2103623.0,
1172,2103548.0,
1173,2103718.0,
1174,2103743.0,
1175,2103751.0,
1176,2103553.0,
1177,2103585.0,
1178,2103581.0,
1179,2103567.0,
1180,2103552.0,
1181,2103530.0,
1182,2103547.0,
1183,2103563.0,
1184,2103621.0,
1185,2103829.0,
1186,2103722.0,
1187,2103654.0,
1188,2103669.0,
1189,2103575.0,
1190,2103668.0,
1191,2103679.0,
1192,2103636.0,
1193,2103577.0,
1194,2103627.0,
1195,2103736.0,
1196,2103676.0,
1197,2103754.0,
1198,2103635.0,
1199,2103517.0,
1200,2103616.0,
1201,2103570.0,
1202,2103596.0,
1203,2103593.0,
1204,2103596.0,
1205,2103536.0,
1206,2103585.0,
1207,2103779.0,
1208,2103624.0,
1209,2103620.0,
1210,2103568.0,
1211,2103602.0,
1212,2103568.0,
1213,2103622.0,
1214,2103686.0,
1215,2103635.0,
1216,2103638.0,
1217,2103761.0,
1218,2103590.0,
1219,2103567.0,
1220,2103707.0,
1221,2103683.0,
1222,2103642.0,
1223,2103683.0,
1224,2103533.0,
1225,2103623.0,
1226,2103614.0,
1227,2103561.0,
1228,2103638.0,
1229,2103727.0,
1230,2103851.0,
1231,2103690.0,
1232,2103721.0,
1233,2103511.0,
1234,2103550.0,
1235,2103575.0,
1236,2103559.0,
1237,2103500.0,
1238,2103592.0,
1239,2103791.0,
1240,2103748.0,
1241,2103542.0,
1242,2103725.0,
1243,2103601.0,
1244,2103666.0,
1245,2103643.0,
1246,2103551.0,
1247,2103673.0,
1248,2103613.0,
1249,2103624.0,
1250,2103801.0,
1251,2103722.0,
1252,2103609.0,
1253,2103647.0,
1254,2103762.0,
1255,2103609.0,
1256,2103783.0,
1257,2103619.0,
1258,2103592.0,
1259,2103812.0,
1260,2103654.0,
1261,2103503.0,
1262,2103666.0,
1263,2103760.0,
1264,2103537.0,
1265,2103550.0,
1266,2103631.0,
1267,2103620.0,
1268,2103656.0,
1269,2103706.0,
1270,2103575.0,
1271,2103730.0,
1272,2103599.0,
1273,2103804.0,
1274,2103910.0,
1275,2103703.0,
1276,2103659.0,
1277,2103708.0,
1278,2103707.0,
1279,2103730.0,
1280,2103581.0,
1281,2103633.0,
1282,2103792.0,
1283,2103843.0,
1284,2103584.0,
1285,2103768.0,
1286,2103630.0,
1287,2103610.0,
1288,2103676.0,
1289,2103604.0,
1290,2103649.0,
1291,2103570.0,
1292,2103756.0,
1293,2103591.0,
1294,2103591.0,
1295,2103632.0,
1296,2103618.0,
1297,2103626.0,
1298,2103654.0,
1299,2103576.0,
1300,2103555.0,
1301,2103841.0,
1302,2103784.0,
1303,2103637.0,
1304,2103730.0,
1305,2103548.0,
1306,2103540.0,
1307,2103631.0,
1308,2103614.0,
1309,2103796.0,
1310,2103636.0,
1311,2103601.0,
1312,2103728.0,
1313,2103614.0,
1314,2103614.0,
1315,2103721.0,
1316,2103579.0,
1317,2103530.0,
1318,2103772.0,
1319,2103573.0,
1320,2103616.0,
1321,2103606.0,
1322,2103780.0,
1323,2103613.0,
1324,2103709.0,
1325,2103783.0,
1326,2103750.0,
1327,2103514.0,
1328,2103640.0,
1329,2103822.0,
1330,2103610.0,
1331,2103684.0,
1332,2103764.0,
1333,2103566.0,
1334,2103599.0,
1335,2103604.0,
1336,2103532.0,
1337,2103632.0,
1338,2103555.0,
1339,2103631.0,
1340,2103762.0,
1341,2103732.0,
1342,2103578.0,
1343,2103593.0,
1344,2103572.0,
1345,2103587.0,
1346,2103553.0,
1347,2103535.0,
1348,2103746.0,
1349,2103632.0,
1350,2103543.0,
1351,2103785.0,
1352,2103640.0,
1353,2103713.0,
1354,2103603.0,
1355,2103554.0,
1356,2103623.0,
1357,2103636.0,
1358,2103575.0,
1359,2103609.0,
1360,2103645.0,
1361,2103609.0,
1362,2103658.0,
1363,2103613.0,
1364,2103742.0,
1365,2103684.0,
1366,2103580.0,
1367,2103585.0,
1368,2103542.0,
1369,2103703.0,
1370,2103614.0,
1371,2103598.0,
1372,2103646.0,
1373,2103610.0,
1374,2103663.0,
1375,2103707.0,
1376,2103816.0,
1377,2103814.0,
1378,2103575.0,
1379,2103640.0,
1380,2103619.0,
1381,2103552.0,
1382,2103596.0,
1383,2103805.0,
1384,2103728.0,
1385,2103662.0,
1386,2103567.0,
1387,2103499.0,
1388,2103752.0,
1389,2103739.0,
1390,2103714.0,
1391,2103581.0,
1392,2103571.0,
1393,2103502.0,
1394,2103521.0,
1395,2103509.0,
1396,2103708.0,
1397,2103587.0,
1398,2103545.0,
1399,2103612.0,
1400,2103654.0,
1401,2103805.0,
1402,2103665.0,
1403,2103572.0,
1404,2103605.0,
1405,2103649.0,
1406,2103687.0,
1407,2103807.0,
1408,2103809.0,
1409,2103540.0,
1410,2103565.0,
1411,2103562.0,
1412,2103721.0,
1413,2103774.0,
1414,2103787.0,
1415,2103588.0,
1416,2103575.0,
1417,2103525.0,
1418,2103658.0,
1419,2103760.0,
1420,2103739.0,
1421,2103726.0,
1422,2103785.0,
1423,2103604.0,
1424,2103670.0,
1425,2103634.0,
1426,2103587.0,
1427,2103611.0,
1428,2103781.0,
1429,2103609.0,
1430,2103621.0,
1431,2103668.0,
1432,2103550.0,
1433,2103572.0,
1434,2103725.0,
1435,2103599.0,
1436,2103619.0,
1437,2103592.0,
1438,2103805.0,
1439,2103587.0,
1440,2103547.0,
1441,2103590.0,
1442,2103876.0,
1443,2103612.0,
1444,2103580.0,
1445,2103616.0,
1446,2103753.0,
1447,2103787.0,
1448,2103685.0,
1449,2103616.0,
1450,2103673.0,
1451,2103603.0,
1452,2103761.0,
1453,2103640.0,
1454,2103590.0,
1455,2103788.0,
1456,2103601.0,
1457,2103629.0,
1458,2103612.0,
1459,2103574.0,
1460,2103543.0,
1461,2103527.0,
1462,2103713.0,
1463,2103769.0,
1464,2103611.0,
1465,2103497.0,
1466,2103596.0,
1467,2103748.0,
1468,2103771.0,
1469,2103578.0,
1470,2103582.0,
1471,2103638.0,
1472,2103618.0,
1473,2103542.0,
1474,2103636.0,
1475,2103646.0,
1476,2103702.0,
1477,2103778.0,
1478,2103635.0,
1479,2103612.0,
1480,2103681.0,
1481,2103590.0,
1482,2103622.0,
1483,2103579.0,
1484,2103538.0,
1485,2103581.0,
1486,2103562.0,
1487,2103530.0,
1488,2103742.0,
1489,2103724.0,
1490,2103763.0,
1491,2103625.0,
1492,2103566.0,
1493,2103626.0,
1494,2103618.0,
1495,2103658.0,
1496,2103785.0,
1497,2103810.0,
1498,2103601.0,
1499,2103607.0,
1500,2103795.0,
1501,2103562.0,
1502,2103584.0,
1503,2103606.0,
1504,2103748.0,
1505,2103821.0,
1506,2103603.0,
1507,2103595.0,
1508,2103546.0,
1509,2103662.0,
1510,2103552.0,
1511,2103660.0,
1512,2103677.0,
1513,2103629.0,
1514,2103621.0,
1515,2103611.0,
1516,2103601.0,
1517,2103568.0,
1518,2103758.0,
1519,2103763.0,
1520,2103663.0,
1521,2103686.0,
1522,2103658.0,
1523,2103578.0,
1524,2103567.0,
1525,2103631.0,
1526,2103712.0,
1527,2103534.0,
1528,2103537.0,
1529,2103545.0,
1530,2103686.0,
1531,2103709.0,
1532,2103751.0,
1533,2103779.0,
1534,2103583.0,
1535,2103762.0,
1536,2103630.0,
1537,2103753.0,
1538,2103663.0,
1539,2103633.0,
1540,2103595.0,
1541,2103624.0,
1542,2103677.0,
1543,2103788.0,
1544,2103581.0,
1545,2103655.0,
1546,2103712.0,
1547,2103757.0,
1548,2103567.0,
1549,2103549.0,
1550,2103737.0,
1551,2103789.0,
1552,2103754.0,
1553,2103721.0,
1554,2103581.0,
1555,2103583.0,
1556,2103572.0,
1557,2103788.0,
1558,2103593.0,
1559,2103587.0,
1560,2103622.0,
1561,2103549.0,
1562,2103635.0,
1563,2103789.0,
1564,2103705.0,
1565,2103698.0,
1566,2103630.0,
1567,2103531.0,
1568,2103694.0,
1569,2103765.0,
1570,2103730.0,
1571,2103577.0,
1572,2103560.0,
1573,2103718.0,
1574,2103483.0,
1575,2103694.0,
1576,2103590.0,
1577,2103554.0,
1578,2103583.0,
1579,2103589.0,
1580,2103783.0,
1581,2103792.0,
1582,2103712.0,
1583,2103765.0,
1584,2103778.0,
1585,2103611.0,
1586,2103622.0,
1587,2103550.0,
1588,2103628.0,
1589,2103569.0,
1590,2103582.0,
1591,2103585.0,
1592,2103549.0,
1593,2103738.0,
1594,2103709.0,
1595,2103761.0,
1596,2103624.0,
1597,2103608.0,
1598,2103557.0,
1599,2103593.0,
1600,2103559.0,
1601,2103600.0,
1602,2103562.0,
1603,2103609.0,
1604,2103672.0,
1605,2103601.0,
1606,2103756.0,
1607,2103753.0,
1608,2103626.0,
1609,2103688.0,
1610,2103702.0,
1611,2103696.0,
1612,2103594.0,
1613,2103800.0,
1614,2103788.0,
1615,2103653.0,
1616,2103567.0,
1617,2103613.0,
1618,2103571.0,
1619,2103673.0,
1620,2103615.0,
1621,2103639.0,
1622,2103605.0,
1623,2103559.0,
1624,2103706.0,
1625,2103648.0,
1626,2103586.0,
1627,2103729.0,
1628,2103813.0,
1629,2103803.0,
1630,2103625.0,
1631,2103595.0,
1632,2103633.0,
1633,2103708.0,
1634,2103567.0,
1635,2103580.0,
1636,2103534.0,
1637,2103586.0,
1638,2103711.0,
1639,2103681.0,
1640,2103686.0,
1641,2103587.0,
1642,2103531.0,
1643,2103723.0,
1644,2103772.0,
1645,2103772.0,
1646,2103761.0,
1647,2103829.0,
1648,2103771.0,
1649,2103708.0,
1650,2103792.0,
1651,2103587.0,
1652,2103592.0,
1653,2103544.0,
1654,2103635.0,
1655,2103544.0,
1656,2103578.0,
1657,2103670.0,
1658,2103773.0,
1659,2103590.0,
1660,2103807.0,
1661,2103788.0,
1662,2103783.0,
1663,2103530.0,
1664,2103558.0,
1665,2103635.0,
1666,2103634.0,
1667,2103562.0,
1668,2103635.0,
1669,2103634.0,
1670,2103692.0,
1671,2103590.0,
1672,2103564.0,
1673,2103567.0,
1674,2103815.0,
1675,2103592.0,
1676,2103700.0,
1677,2103644.0,
1678,2103564.0,
1679,2103704.0,
1680,2103753.0,
1681,2103578.0,
1682,2103758.0,
1683,2103592.0,
1684,2103737.0,
1685,2103656.0,
1686,2103627.0,
1687,2103636.0,
1688,2103660.0,
1689,2103528.0,
1690,2103604.0,
1691,2103598.0,
1692,2103646.0,
1693,2103610.0,
1694,2103725.0,
1695,2103796.0,
1696,2103682.0,
1697,2103641.0,
1698,2103737.0,
1699,2103722.0,
1700,2103805.0,
1701,2103567.0,
1702,2103601.0,
1703,2103524.0,
1704,2103556.0,
1705,2103646.0,
1706,2103552.0,
1707,2103589.0,
1708,2103584.0,
1709,2103603.0,
1710,2103839.0,
1711,2103570.0,
1712,2103599.0,
1713,2103576.0,
1714,2103577.0,
1715,2103600.0,
1716,2103573.0,
1717,2103796.0,
1718,2103621.0,
1719,2103644.0,
1720,2103575.0,
1721,2103576.0,
1722,2103633.0,
1723,2103627.0,
1724,2103735.0,
1725,2103775.0,
1726,2103662.0,
1727,2103499.0,
1728,2103632.0,
1729,2103569.0,
1730,2103545.0,
1731,2103533.0,
1732,2103587.0,
1733,2103803.0,
1734,2103722.0,
1735,2103795.0,
1736,2103738.0,
1737,2103618.0,
1738,2103814.0,
1739,2103680.0,
1740,2103531.0,
1741,2103590.0,
1742,2103582.0,
1743,2103610.0,
1744,2103604.0,
1745,2103650.0,
1746,2103807.0,
1747,2103758.0,
1748,2103790.0,
1749,2103735.0,
1750,2103772.0,
1751,2103727.0,
1752,2103589.0,
1753,2103582.0,
1754,2103616.0,
1755,2103581.0,
1756,2103597.0,
1757,2103608.0,
1758,2103627.0,
1759,2103757.0,
1760,2103812.0,
1761,2103730.0,
1762,2103761.0,
1763,2103610.0,
1764,2103506.0,
1765,2103563.0,
1766,2103698.0,
1767,2103778.0,
1768,2103763.0,
1769,2103702.0,
1770,2103597.0,
1771,2103605.0,
1772,2103637.0,
1773,2103762.0,
1774,2103591.0,
1775,2103604.0,
1776,2103588.0,
1777,2103624.0,
1778,2103819.0,
1779,2103518.0,
1780,2103570.0,
1781,2103575.0,
1782,2103606.0,
1783,2103836.0,
1784,2103758.0,
1785,2103582.0,
1786,2103533.0,
1787,2103592.0,
1788,2103787.0,
1789,2103827.0,
1790,2103836.0,
1791,2103729.0,
1792,2103762.0,
1793,2103573.0,
1794,2103573.0,
1795,2103578.0,
1796,2103604.0,
1797,2103623.0,
1798,2103775.0,
1799,2103737.0,
1800,2215240.0,
1801,2186644.0,
1802,2216446.0,
1803,2100265.0,
1804,2118853.0,
1805,2105492.0,
1806,2111011.0,
1807,2105998.0,
1808,2109006.0,
1809,2107507.0,
1810,2107114.0,
1811,2107274.0,
1812,2107274.0,
1813,2108183.0,
1814,2106857.0,
1815,2109217.0,
1816,2109475.0,
1817,2109475.0,
1818,2107537.0,
1819,2107717.0,
1820,2108992.0,
1821,2107815.0,
1822,2108699.0,
1823,2108064.0,
1824,2108675.0,
1825,2108376.0,
1826,2108593.0,
1827,2108459.0,
1828,2108713.0,
1829,2108659.0,
1830,2108476.0,
1831,2108726.0,
1832,2108664.0,
1833,2108922.0,
1834,2108776.0,
1835,2109087.0,
1836,2108790.0,
1837,2108896.0,
1838,2108791.0,
1839,2108889.0,
1840,2108562.0,
1841,2108896.0,
1842,2108580.0,
1843,2108893.0,
1844,2108709.0,
1845,2108840.0,
1846,2108884.0,
1847,2108719.0,
1848,2108721.0,
1849,2108671.0,
1850,2108881.0,
1851,2108681.0,
1852,2108799.0,
1853,2108651.0,
1854,2108799.0,
1855,2108719.0,
1856,2108812.0,
1857,2108748.0,
1858,2108656.0,
1859,2108747.0,
1860,2108714.0,
1861,2108770.0,
1862,2108708.0,
1863,2108645.0,
1864,2108729.0,
1865,2108736.0,
1866,2108814.0,
1867,2108904.0,
1868,2108781.0,
1869,2108936.0,
1870,2108715.0,
1871,2108756.0,
1872,2108704.0,
1873,2108729.0,
1874,2108655.0,
1875,2108691.0,
1876,2108771.0,
1877,2108815.0,
1878,2108676.0,
1879,2108860.0,
1880,2108675.0,
1881,2108784.0,
1882,2108704.0,
1883,2108790.0,
1884,2108690.0,
1885,2108795.0,
1886,2108817.0,
1887,2108811.0,
1888,2108761.0,
1889,2108671.0,
1890,2108784.0,
1891,2108728.0,
1892,2108727.0,
1893,2108626.0,
1894,2108975.0,
1895,2108752.0,
1896,2108786.0,
1897,2108812.0,
1898,2108707.0,
1899,2108736.0,
1900,2108737.0,
1901,2108698.0,
1902,2108774.0,
1903,2108675.0,
1904,2108713.0,
1905,2108842.0,
1906,2108944.0,
1907,2108922.0,
1908,2108877.0,
1909,2108753.0,
1910,2108698.0,
1911,2108798.0,
1912,2108751.0,
1913,2108727.0,
1914,2108790.0,
1915,2108855.0,
1916,2108669.0,
1917,2108800.0,
1918,2108699.0,
1919,2108756.0,
1920,2108913.0,
1921,2108890.0,
1922,2108730.0,
1923,2108701.0,
1924,2108789.0,
1925,2108960.0,
1926,2108623.0,
1927,2108749.0,
1928,2108911.0,
1929,2108886.0,
1930,2108715.0,
1931,2108887.0,
1932,2108777.0,
1933,2108697.0,
1934,2108790.0,
1935,2108724.0,
1936,2108908.0,
1937,2108707.0,
1938,2108733.0,
1939,2108705.0,
1940,2108721.0,
1941,2108714.0,
1942,2108946.0,
1943,2108789.0,
1944,2108723.0,
1945,2108790.0,
1946,2108712.0,
1947,2108972.0,
1948,2108863.0,
1949,2108865.0,
1950,2108906.0,
1951,2108735.0,
1952,2108790.0,
1953,2108725.0,
1954,2108712.0,
1955,2108787.0,
1956,2108917.0,
1957,2108865.0,
1958,2108906.0,
1959,2108871.0,
1960,2108789.0,
1961,2108883.0,
1962,2108865.0,
1963,2108841.0,
1964,2108746.0,
1965,2108823.0,
1966,2108762.0,
1967,2108918.0,
1968,2108645.0,
1969,2108697.0,
1970,2108731.0,
1971,2108905.0,
1972,2108714.0,
1973,2108719.0,
1974,2108914.0,
1975,2108801.0,
1976,2108888.0,
1977,2108719.0,
1978,2108897.0,
1979,2108785.0,
1980,2108808.0,
1981,2108920.0,
1982,2108951.0,
1983,2108808.0,
1984,2108917.0,
1985,2108844.0,
1986,2108750.0,
1987,2108720.0,
1988,2108843.0,
1989,2108641.0,
1990,2108755.0,
1991,2108641.0,
1992,2108789.0,
1993,2108750.0,
1994,2108716.0,
1995,2108711.0,
1996,2108794.0,
1997,2108729.0,
1998,2108672.0,
1999,2108775.0,
2000,2108944.0,
2001,2108772.0,
2002,2108744.0,
2003,2108901.0,
2004,2108844.0,
2005,2108962.0,
2006,2108914.0,
2007,2108904.0,
2008,2108723.0,
2009,2108736.0,
2010,2108734.0,
2011,2108710.0,
2012,2108679.0,
2013,2108739.0,
2014,2108717.0,
2015,2108825.0,
2016,2108666.0,
2017,2108853.0,
2018,2108744.0,
2019,2108782.0,
2020,2108712.0,
2021,2108803.0,
2022,2108692.0,
2023,2108916.0,
2024,2108711.0,
2025,2108923.0,
2026,2108835.0,
2027,2108719.0,
2028,2108711.0,
2029,2108898.0,
2030,2108943.0,
2031,2108861.0,
2032,2108760.0,
2033,2108754.0,
2034,2108738.0,
2035,2108768.0,
2036,2108717.0,
2037,2108625.0,
2038,2108650.0,
2039,2108877.0,
2040,2108849.0,
2041,2108863.0,
2042,2108663.0,
2043,2108734.0,
2044,2108748.0,
2045,2108779.0,
2046,2108780.0,
2047,2108753.0,
2048,2108782.0,
2049,2108901.0,
2050,2108923.0,
2051,2108779.0,
2052,2108904.0,
2053,2108775.0,
2054,2108736.0,
2055,2108729.0,
2056,2108883.0,
2057,2108917.0,
2058,2108939.0,
2059,2108825.0,
2060,2108819.0,
2061,2108899.0,
2062,2108844.0,
2063,2108778.0,
2064,2108724.0,
2065,2108778.0,
2066,2108707.0,
2067,2108927.0,
2068,2108761.0,
2069,2108939.0,
2070,2108870.0,
2071,2108685.0,
2072,2108738.0,
2073,2108645.0,
2074,2108743.0,
2075,2108777.0,
2076,2108754.0,
2077,2108917.0,
2078,2108867.0,
2079,2108677.0,
2080,2108640.0,
2081,2108762.0,
2082,2108764.0,
2083,2108758.0,
2084,2108759.0,
2085,2108871.0,
2086,2108720.0,
2087,2108757.0,
2088,2108761.0,
2089,2108733.0,
2090,2108671.0,
2091,2108775.0,
2092,2108854.0,
2093,2108730.0,
2094,2108790.0,
2095,2108918.0,
2096,2108891.0,
2097,2108661.0,
2098,2108736.0,
2099,2108757.0,
2100,2108781.0,
2101,2108903.0,
2102,2108868.0,
2103,2108875.0,
2104,2108748.0,
2105,2108932.0,
2106,2108719.0,
2107,2108721.0,
2108,2108744.0,
2109,2108708.0,
2110,2108767.0,
2111,2108728.0,
2112,2108843.0,
2113,2108918.0,
2114,2108807.0,
2115,2108953.0,
2116,2108874.0,
2117,2108711.0,
2118,2108710.0,
2119,2108794.0,
2120,2108683.0,
2121,2108808.0,
2122,2108826.0,
2123,2108946.0,
2124,2108911.0,
2125,2108668.0,
2126,2108789.0,
2127,2108622.0,
2128,2108733.0,
2129,2108718.0,
2130,2108707.0,
2131,2108888.0,
2132,2108882.0,
2133,2108697.0,
2134,2108689.0,
2135,2108785.0,
2136,2108705.0,
2137,2108736.0,
2138,2108751.0,
2139,2108916.0,
2140,2108913.0,
2141,2108728.0,
2142,2108997.0,
2143,2108795.0,
2144,2108706.0,
2145,2108841.0,
2146,2108788.0,
2147,2108719.0,
2148,2108763.0,
2149,2108751.0,
2150,2108836.0,
2151,2108945.0,
2152,2108772.0,
2153,2108930.0,
2154,2108706.0,
2155,2108759.0,
2156,2108744.0,
2157,2108725.0,
2158,2108732.0,
2159,2108846.0,
2160,2108887.0,
2161,2108702.0,
2162,2108833.0,
2163,2108705.0,
2164,2108719.0,
2165,2108937.0,
2166,2108746.0,
2167,2108879.0,
2168,2108906.0,
2169,2108666.0,
2170,2108790.0,
2171,2108875.0,
2172,2108717.0,
2173,2108826.0,
2174,2108889.0,
2175,2108812.0,
2176,2108734.0,
2177,2108904.0,
2178,2108759.0,
2179,2108867.0,
2180,2108778.0,
2181,2108773.0,
2182,2108949.0,
2183,2108906.0,
2184,2108771.0,
2185,2108790.0,
2186,2108696.0,
2187,2108711.0,
2188,2108846.0,
2189,2108697.0,
2190,2108819.0,
2191,2108735.0,
2192,2108828.0,
2193,2108734.0,
2194,2108744.0,
2195,2108748.0,
2196,2108899.0,
2197,2108754.0,
2198,2108757.0,
2199,2108692.0,
2200,2108762.0,
2201,2108771.0,
2202,2108774.0,
2203,2108912.0,
2204,2108869.0,
2205,2108776.0,
2206,2108662.0,
2207,2108738.0,
2208,2108699.0,
2209,2108770.0,
2210,2108910.0,
2211,2108934.0,
2212,2108791.0,
2213,2108683.0,
2214,2108813.0,
2215,2108878.0,
2216,2108743.0,
2217,2108917.0,
2218,2108950.0,
2219,2108826.0,
2220,2108777.0,
2221,2108789.0,
2222,2108785.0,
2223,2108779.0,
2224,2108757.0,
2225,2108915.0,
2226,2108969.0,
2227,2108698.0,
2228,2108794.0,
2229,2108913.0,
2230,2108730.0,
2231,2108791.0,
2232,2108754.0,
2233,2108885.0,
2234,2108913.0,
2235,2108854.0,
2236,2108750.0,
2237,2108725.0,
2238,2108871.0,
2239,2108934.0,
2240,2108713.0,
2241,2108826.0,
2242,2108785.0,
2243,2108921.0,
2244,2108738.0,
2245,2108882.0,
2246,2108866.0,
2247,2108841.0,
2248,2108780.0,
2249,2108830.0,
2250,2108868.0,
2251,2108818.0,
2252,2108728.0,
2253,2108857.0,
2254,2108690.0,
2255,2108796.0,
2256,2108789.0,
2257,2108751.0,
2258,2108952.0,
2259,2108989.0,
2260,2108764.0,
2261,2108786.0,
2262,2108948.0,
2263,2108690.0,
2264,2108732.0,
2265,2108751.0,
2266,2108956.0,
2267,2108721.0,
2268,2108780.0,
2269,2108759.0,
2270,2108786.0,
2271,2108740.0,
2272,2108719.0,
2273,2108750.0,
2274,2108947.0,
2275,2108960.0,
2276,2109042.0,
2277,2108940.0,
2278,2108738.0,
2279,2108780.0,
2280,2108755.0,
2281,2108726.0,
2282,2108687.0,
2283,2108815.0,
2284,2108819.0,
2285,2108930.0,
2286,2108885.0,
2287,2108747.0,
2288,2108688.0,
2289,2108722.0,
2290,2108654.0,
2291,2108733.0,
2292,2108761.0,
2293,2108926.0,
2294,2108749.0,
2295,2108772.0,
2296,2108744.0,
2297,2108902.0,
2298,2108743.0,
2299,2108740.0,
2300,2108703.0,
2301,2108683.0,
2302,2108663.0,
2303,2108800.0,
2304,2108668.0,
2305,2108774.0,
2306,2108934.0,
2307,2108884.0,
2308,2108939.0,
2309,2108806.0,
2310,2108776.0,
2311,2108710.0,
2312,2108728.0,
2313,2108753.0,
2314,2108889.0,
2315,2108708.0,
2316,2108755.0,
2317,2108873.0,
2318,2108889.0,
2319,2108776.0,
2320,2108788.0,
2321,2108753.0,
2322,2108795.0,
2323,2108838.0,
2324,2108868.0,
2325,2108938.0,
2326,2108704.0,
2327,2108695.0,
2328,2108762.0,
2329,2108726.0,
2330,2108712.0,
2331,2108670.0,
2332,2108758.0,
2333,2108743.0,
2334,2108721.0,
2335,2108733.0,
2336,2108738.0,
2337,2108937.0,
2338,2108812.0,
2339,2108850.0,
2340,2108835.0,
2341,2108751.0,
2342,2108722.0,
2343,2108794.0,
2344,2108738.0,
2345,2108819.0,
2346,2108734.0,
2347,2108865.0,
2348,2108867.0,
2349,2108858.0,
2350,2108906.0,
2351,2108746.0,
2352,2108729.0,
2353,2108730.0,
2354,2108639.0,
2355,2108712.0,
2356,2108745.0,
2357,2108893.0,
2358,2108721.0,
2359,2108931.0,
2360,2108945.0,
2361,2108718.0,
2362,2108726.0,
2363,2108593.0,
2364,2108669.0,
2365,2108730.0,
2366,2108773.0,
2367,2108676.0,
2368,2108678.0,
2369,2108826.0,
2370,2108711.0,
2371,2108933.0,
2372,2108727.0,
2373,2108710.0,
2374,2108685.0,
2375,2108879.0,
2376,2108716.0,
2377,2108702.0,
2378,2108723.0,
2379,2108729.0,
2380,2108708.0,
2381,2108781.0,
2382,2108943.0,
2383,2108919.0,
2384,2108807.0,
2385,2108824.0,
2386,2108726.0,
2387,2108751.0,
2388,2108752.0,
2389,2108711.0,
2390,2108714.0,
2391,2108725.0,
2392,2108800.0,
2393,2108969.0,
2394,2108898.0,
2395,2108848.0,
2396,2108706.0,
2397,2108703.0,
2398,2108783.0,
2399,2108852.0,
2400,2108813.0,
2401,2108728.0,
2402,2108805.0,
2403,2108750.0,
2404,2108709.0,
2405,2108699.0,
2406,2108647.0,
2407,2108780.0,
2408,2108743.0,
2409,2108840.0,
2410,2108768.0,
2411,2108902.0,
2412,2108810.0,
2413,2108959.0,
2414,2108966.0,
2415,2108671.0,
2416,2108716.0,
2417,2108657.0,
2418,2108837.0,
2419,2108721.0,
2420,2108705.0,
2421,2108751.0,
2422,2108765.0,
2423,2108784.0,
2424,2108761.0,
2425,2108752.0,
2426,2108703.0,
2427,2108826.0,
2428,2108756.0,
2429,2108706.0,
2430,2108774.0,
2431,2108904.0,
2432,2108767.0,
2433,2108818.0,
2434,2108718.0,
2435,2108818.0,
2436,2108947.0,
2437,2108888.0,
2438,2108685.0,
2439,2108787.0,
2440,2108726.0,
2441,2108750.0,
2442,2108736.0,
2443,2108700.0,
2444,2108734.0,
2445,2108797.0,
2446,2108763.0,
2447,2108710.0,
2448,2108760.0,
2449,2108819.0,
2450,2108748.0,
2451,2108695.0,
2452,2108717.0,
2453,2108867.0,
2454,2108717.0,
2455,2108752.0,
2456,2108758.0,
2457,2108734.0,
2458,2108739.0,
2459,2108698.0,
2460,2108816.0,
2461,2108671.0,
2462,2108787.0,
2463,2108906.0,
2464,2108899.0,
2465,2108749.0,
2466,2108729.0,
2467,2108683.0,
2468,2108705.0,
2469,2108740.0,
2470,2108678.0,
2471,2108650.0,
2472,2108667.0,
2473,2108758.0,
2474,2108744.0,
2475,2108795.0,
2476,2108773.0,
2477,2108686.0,
2478,2108725.0,
2479,2108739.0,
2480,2108763.0,
2481,2108923.0,
2482,2108870.0,
2483,2108793.0,
2484,2108730.0,
2485,2108793.0,
2486,2108683.0,
2487,2108772.0,
2488,2108933.0,
2489,2108774.0,
2490,2108776.0,
2491,2108823.0,
2492,2108914.0,
2493,2108802.0,
2494,2108753.0,
2495,2108697.0,
2496,2108731.0,
2497,2108757.0,
2498,2108747.0,
2499,2108729.0,
2500,2108977.0,
2501,2108886.0,
2502,2108914.0,
2503,2108999.0,
2504,2108681.0,
2505,2108789.0,
2506,2108700.0,
2507,2108751.0,
2508,2108803.0,
2509,2108691.0,
2510,2108881.0,
2511,2108757.0,
2512,2108765.0,
2513,2108716.0,
2514,2108733.0,
2515,2108703.0,
2516,2108806.0,
2517,2108764.0,
2518,2108704.0,
2519,2108895.0,
2520,2108781.0,
2521,2108734.0,
2522,2108803.0,
2523,2108869.0,
2524,2108886.0,
2525,2108898.0,
2526,2108681.0,
2527,2108795.0,
2528,2108759.0,
2529,2108755.0,
2530,2108784.0,
2531,2108812.0,
2532,2108916.0,
2533,2108787.0,
2534,2108774.0,
2535,2108745.0,
2536,2108881.0,
2537,2108918.0,
2538,2108923.0,
2539,2108914.0,
2540,2108911.0,
2541,2108913.0,
2542,2108894.0,
2543,2108898.0,
2544,2108839.0,
2545,2108876.0,
2546,2108906.0,
2547,2108786.0,
2548,2108907.0,
2549,2108841.0,
2550,2108712.0,
2551,2108733.0,
2552,2108715.0,
2553,2108758.0,
2554,2108778.0,
2555,2108733.0,
2556,2108757.0,
2557,2108679.0,
2558,2108739.0,
2559,2108909.0,
2560,2108807.0,
2561,2108828.0,
2562,2108669.0,
2563,2108777.0,
2564,2108870.0,
2565,2108712.0,
2566,2108674.0,
2567,2108764.0,
2568,2108911.0,
2569,2108646.0,
2570,2108733.0,
2571,2108764.0,
2572,2108656.0,
2573,2108702.0,
2574,2108756.0,
2575,2108735.0,
2576,2108906.0,
2577,2108753.0,
2578,2108941.0,
2579,2108908.0,
2580,2108903.0,
2581,2108943.0,
2582,2108858.0,
2583,2108753.0,
2584,2108662.0,
2585,2108752.0,
2586,2108835.0,
2587,2108766.0,
2588,2108730.0,
2589,2108787.0,
2590,2108904.0,
2591,2108902.0,
2592,2108696.0,
2593,2108684.0,
2594,2108980.0,
2595,2108865.0,
2596,2108841.0,
2597,2108681.0,
2598,2108683.0,
2599,2108869.0,
2600,2108901.0,
2601,2108736.0,
2602,2108727.0,
2603,2108742.0,
2604,2108908.0,
2605,2108837.0,
2606,2108695.0,
2607,2108912.0,
2608,2108890.0,
2609,2108699.0,
2610,2108883.0,
2611,2108776.0,
2612,2108710.0,
2613,2108811.0,
2614,2108699.0,
2615,2108732.0,
2616,2108718.0,
2617,2108689.0,
2618,2108917.0,
2619,2108981.0,
2620,2108674.0,
2621,2108714.0,
2622,2108722.0,
2623,2108709.0,
2624,2108775.0,
2625,2108775.0,
2626,2108772.0,
2627,2108882.0,
2628,2108775.0,
2629,2108659.0,
2630,2108969.0,
2631,2108738.0,
2632,2108702.0,
2633,2108773.0,
2634,2108894.0,
2635,2108715.0,
2636,2108901.0,
2637,2108760.0,
2638,2108740.0,
2639,2108765.0,
2640,2108775.0,
2641,2108928.0,
2642,2108915.0,
2643,2108771.0,
2644,2108851.0,
2645,2108929.0,
2646,2108765.0,
2647,2108742.0,
2648,2108717.0,
2649,2108702.0,
2650,2108751.0,
2651,2108971.0,
2652,2108900.0,
2653,2108714.0,
2654,2108745.0,
2655,2108737.0,
2656,2108945.0,
2657,2108748.0,
2658,2108957.0,
2659,2108720.0,
2660,2108730.0,
2661,2108770.0,
2662,2108823.0,
2663,2108934.0,
2664,2108743.0,
2665,2108660.0,
2666,2108749.0,
2667,2108719.0,
2668,2108754.0,
2669,2108747.0,
2670,2108745.0,
2671,2108851.0,
2672,2108897.0,
2673,2108917.0,
2674,2108897.0,
2675,2108900.0,
2676,2108897.0,
2677,2108971.0,
2678,2108680.0,
2679,2108838.0,
2680,2108679.0,
2681,2108850.0,
2682,2108751.0,
2683,2108726.0,
2684,2108837.0,
2685,2108847.0,
2686,2108725.0,
2687,2108695.0,
2688,2108703.0,
2689,2108693.0,
2690,2108744.0,
2691,2108731.0,
2692,2108782.0,
2693,2108857.0,
2694,2108898.0,
2695,2108865.0,
2696,2108785.0,
2697,2108686.0,
2698,2108727.0,
2699,2108739.0,
2700,2108693.0,
2701,2108634.0,
2702,2108923.0,
2703,2108767.0,
2704,2108707.0,
2705,2108818.0,
2706,2108698.0,
2707,2108779.0,
2708,2108747.0,
2709,2108644.0,
2710,2108724.0,
2711,2108744.0,
2712,2108743.0,
2713,2108759.0,
2714,2108815.0,
2715,2108837.0,
2716,2108784.0,
2717,2108776.0,
2718,2108727.0,
2719,2108824.0,
2720,2108855.0,
2721,2108769.0,
2722,2108878.0,
2723,2108655.0,
2724,2108709.0,
2725,2108909.0,
2726,2108781.0,
2727,2108844.0,
2728,2108703.0,
2729,2108926.0,
2730,2108848.0,
2731,2108767.0,
2732,2108852.0,
2733,2108974.0,
2734,2108800.0,
2735,2108664.0,
2736,2108706.0,
2737,2108708.0,
2738,2108963.0,
2739,2108912.0,
2740,2108849.0,
2741,2108854.0,
2742,2108803.0,
2743,2108728.0,
2744,2108742.0,
2745,2108727.0,
2746,2108711.0,
2747,2108937.0,
2748,2108753.0,
2749,2108717.0,
2750,2108679.0,
2751,2108705.0,
2752,2108680.0,
2753,2108795.0,
2754,2108896.0,
2755,2108767.0,
2756,2108723.0,
2757,2108745.0,
2758,2108894.0,
2759,2108764.0,
2760,2108766.0,
2761,2108757.0,
2762,2108688.0,
2763,2108741.0,
2764,2108737.0,
2765,2108662.0,
2766,2108682.0,
2767,2108876.0,
2768,2108735.0,
2769,2108912.0,
2770,2108813.0,
2771,2108771.0,
2772,2108941.0,
2773,2108904.0,
2774,2108719.0,
2775,2108786.0,
2776,2108699.0,
2777,2108716.0,
2778,2108864.0,
2779,2108756.0,
2780,2108695.0,
2781,2108702.0,
2782,2108685.0,
2783,2108716.0,
2784,2108726.0,
2785,2108804.0,
2786,2108716.0,
2787,2108751.0,
2788,2108722.0,
2789,2108756.0,
2790,2108778.0,
2791,2108663.0,
2792,2108721.0,
2793,2108720.0,
2794,2108700.0,
2795,2108764.0,
2796,2108980.0,
2797,2108878.0,
2798,2108713.0,
2799,2108709.0,
2800,2108704.0,
2801,2108797.0,
2802,2108759.0,
2803,2108880.0,
2804,2108959.0,
2805,2108666.0,
2806,2108831.0,
2807,2108778.0,
2808,2108802.0,
2809,2108682.0,
2810,2108639.0,
2811,2108709.0,
2812,2108797.0,
2813,2108755.0,
2814,2108692.0,
2815,2108779.0,
2816,2108697.0,
2817,2108805.0,
2818,2108790.0,
2819,2108919.0,
2820,2108837.0,
2821,2108720.0,
2822,2108839.0,
2823,2108857.0,
2824,2108969.0,
2825,2108829.0,
2826,2108852.0,
2827,2108723.0,
2828,2108760.0,
2829,2108751.0,
2830,2108829.0,
2831,2108799.0,
2832,2108721.0,
2833,2108717.0,
2834,2108781.0,
2835,2108886.0,
2836,2108906.0,
2837,2108949.0,
2838,2108868.0,
2839,2108773.0,
2840,2108680.0,
2841,2108696.0,
2842,2108747.0,
2843,2108787.0,
2844,2108752.0,
2845,2108774.0,
2846,2108920.0,
2847,2108780.0,
2848,2108726.0,
2849,2108737.0,
2850,2108706.0,
2851,2108833.0,
2852,2108694.0,
2853,2108907.0,
2854,2108909.0,
2855,2108727.0,
2856,2108658.0,
2857,2108757.0,
2858,2108679.0,
2859,2108730.0,
2860,2108723.0,
2861,2108769.0,
2862,2108751.0,
2863,2108897.0,
2864,2108797.0,
2865,2108661.0,
2866,2108789.0,
2867,2108768.0,
2868,2108665.0,
2869,2108770.0,
2870,2108882.0,
2871,2108897.0,
2872,2108897.0,
2873,2108841.0,
2874,2108907.0,
2875,2108866.0,
2876,2108899.0,
2877,2108800.0,
2878,2108914.0,
2879,2108792.0,
2880,2108613.0,
2881,2108776.0,
2882,2108758.0,
2883,2108786.0,
2884,2108878.0,
2885,2108884.0,
2886,2108692.0,
2887,2108748.0,
2888,2108709.0,
2889,2108707.0,
2890,2108813.0,
2891,2108713.0,
2892,2108850.0,
2893,2108800.0,
2894,2108699.0,
2895,2108791.0,
2896,2108679.0,
2897,2108741.0,
2898,2108741.0,
2899,2108717.0,
2900,2108805.0,
2901,2108926.0,
2902,2108847.0,
2903,2108712.0,
2904,2108862.0,
2905,2108741.0,
2906,2108672.0,
2907,2108703.0,
2908,2108676.0,
2909,2108719.0,
2910,2108731.0,
2911,2108706.0,
2912,2108766.0,
2913,2108849.0,
2914,2108894.0,
2915,2108671.0,
2916,2108664.0,
2917,2108740.0,
2918,2108729.0,
2919,2108775.0,
2920,2108893.0,
2921,2108958.0,
2922,2108747.0,
2923,2108745.0,
2924,2108819.0,
2925,2108670.0,
2926,2108780.0,
2927,2108778.0,
2928,2108908.0,
2929,2108939.0,
2930,2108784.0,
2931,2108718.0,
2932,2108706.0,
2933,2109012.0,
2934,2108721.0,
2935,2108748.0,
2936,2108742.0,
2937,2108845.0,
2938,2108857.0,
2939,2108753.0,
2940,2108716.0,
2941,2108920.0,
2942,2108881.0,
2943,2108934.0,
2944,2108809.0,
2945,2108739.0,
2946,2108729.0,
2947,2108774.0,
2948,2108778.0,
2949,2108916.0,
2950,2108763.0,
2951,2108837.0,
2952,2108711.0,
2953,2108688.0,
2954,2108687.0,
2955,2108653.0,
2956,2108964.0,
2957,2108895.0,
2958,2108807.0,
2959,2108717.0,
2960,2108736.0,
2961,2108842.0,
2962,2108722.0,
2963,2108682.0,
2964,2108791.0,
2965,2108932.0,
2966,2108792.0,
2967,2108814.0,
2968,2108805.0,
2969,2108764.0,
2970,2108807.0,
2971,2108680.0,
2972,2108781.0,
2973,2108910.0,
2974,2108741.0,
2975,2108709.0,
2976,2108682.0,
2977,2108712.0,
2978,2108893.0,
2979,2108650.0,
2980,2108962.0,
2981,2108708.0,
2982,2108905.0,
2983,2108740.0,
2984,2108692.0,
2985,2108741.0,
2986,2108704.0,
2987,2108692.0,
2988,2108683.0,
2989,2108740.0,
2990,2108906.0,
2991,2108764.0,
2992,2108880.0,
2993,2108691.0,
2994,2108702.0,
2995,2108696.0,
2996,2108763.0,
2997,2108725.0,
2998,2108772.0,
2999,2108981.0,
3000,2108780.0,
3001,2108896.0,
3002,2108907.0,
3003,2108925.0,
3004,2108999.0,
3005,2108935.0,
3006,2108926.0,
3007,2108879.0,
3008,2108839.0,
3009,2108692.0,
3010,2108739.0,
3011,2108669.0,
3012,2108792.0,
3013,2108605.0,
3014,2108774.0,
3015,2108722.0,
3016,2108740.0,
3017,2108723.0,
3018,2108789.0,
3019,2108916.0,
3020,2108895.0,
3021,2108901.0,
3022,2108674.0,
3023,2108740.0,
3024,2108762.0,
3025,2108979.0,
3026,2108925.0,
3027,2108882.0,
3028,2108799.0,
3029,2108789.0,
3030,2108652.0,
3031,2108753.0,
3032,2108955.0,
3033,2108884.0,
3034,2108828.0,
3035,2108945.0,
3036,2108661.0,
3037,2108742.0,
3038,2108759.0,
3039,2108798.0,
3040,2108783.0,
3041,2108754.0,
3042,2108637.0,
3043,2108747.0,
3044,2108745.0,
3045,2108748.0,
3046,2108731.0,
3047,2108714.0,
3048,2108751.0,
3049,2108678.0,
3050,2108645.0,
3051,2108763.0,
3052,2108911.0,
3053,2108924.0,
3054,2108894.0,
3055,2108822.0,
3056,2108608.0,
3057,2108730.0,
3058,2108765.0,
3059,2108792.0,
3060,2108904.0,
3061,2108840.0,
3062,2108803.0,
3063,2108708.0,
3064,2108922.0,
3065,2108658.0,
3066,2108685.0,
3067,2108685.0,
3068,2108680.0,
3069,2108697.0,
3070,2108655.0,
3071,2108708.0,
3072,2108573.0,
3073,2108716.0,
3074,2108756.0,
3075,2108642.0,
3076,2108742.0,
3077,2108592.0,
3078,2108761.0,
3079,2108774.0,
3080,2108921.0,
3081,2108738.0,
3082,2108746.0,
3083,2108700.0,
3084,2108719.0,
3085,2108765.0,
3086,2108856.0,
3087,2108922.0,
3088,2108920.0,
3089,2108667.0,
3090,2108727.0,
3091,2108707.0,
3092,2108779.0,
3093,2108682.0,
3094,2108734.0,
3095,2108751.0,
3096,2108888.0,
3097,2108888.0,
3098,2108833.0,
3099,2108663.0,
3100,2108629.0,
3101,2108752.0,
3102,2108752.0,
3103,2108722.0,
3104,2108963.0,
3105,2108861.0,
3106,2108613.0,
3107,2108613.0,
3108,2108698.0,
3109,2108916.0,
3110,2108849.0,
3111,2108692.0,
3112,2108751.0,
3113,2108676.0,
3114,2108714.0,
3115,2108771.0,
3116,2108713.0,
3117,2108927.0,
3118,2108725.0,
3119,2108979.0,
3120,2108950.0,
3121,2108837.0,
3122,2108876.0,
3123,2108865.0,
3124,2108788.0,
3125,2108698.0,
3126,2108775.0,
3127,2108722.0,
3128,2108698.0,
3129,2108724.0,
3130,2108756.0,
3131,2108891.0,
3132,2108666.0,
3133,2108729.0,
3134,2108815.0,
3135,2108672.0,
3136,2108758.0,
3137,2108840.0,
3138,2108779.0,
3139,2108693.0,
3140,2108720.0,
3141,2108723.0,
3142,2108689.0,
3143,2108943.0,
3144,2108703.0,
3145,2108711.0,
3146,2108726.0,
3147,2108735.0,
3148,2108737.0,
3149,2108620.0,
3150,2108714.0,
3151,2108750.0,
3152,2108758.0,
3153,2108837.0,
3154,2108774.0,
3155,2108709.0,
3156,2108752.0,
3157,2108739.0,
3158,2108757.0,
3159,2108637.0,
3160,2108867.0,
3161,2108867.0,
3162,2108728.0,
3163,2108614.0,
3164,2108717.0,
3165,2108734.0,
3166,2108659.0,
3167,2108684.0,
3168,2108759.0,
3169,2108859.0,
3170,2108697.0,
3171,2108719.0,
3172,2108705.0,
3173,2108768.0,
3174,2108742.0,
3175,2108768.0,
3176,2108753.0,
3177,2108738.0,
3178,2108782.0,
3179,2108912.0,
3180,2108799.0,
3181,2108915.0,
3182,2108920.0,
3183,2108924.0,
3184,2108628.0,
3185,2108879.0,
3186,2108738.0,
3187,2108653.0,
3188,2108701.0,
3189,2108866.0,
3190,2108928.0,
3191,2108901.0,
3192,2108691.0,
3193,2108821.0,
3194,2108852.0,
3195,2108846.0,
3196,2108699.0,
3197,2108765.0,
3198,2108708.0,
3199,2108752.0,
3200,2108784.0,
3201,2108751.0,
3202,2108881.0,
3203,2108699.0,
3204,2108715.0,
3205,2108681.0,
3206,2108654.0,
3207,2108730.0,
3208,2108678.0,
3209,2108733.0,
3210,2108661.0,
3211,2108738.0,
3212,2108674.0,
3213,2108732.0,
3214,2108775.0,
3215,2108634.0,
3216,2108851.0,
3217,2108761.0,
3218,2108989.0,
3219,2108646.0,
3220,2108689.0,
3221,2108693.0,
3222,2108669.0,
3223,2108720.0,
3224,2108817.0,
3225,2108879.0,
3226,2108663.0,
3227,2108726.0,
3228,2108721.0,
3229,2108722.0,
3230,2108631.0,
3231,2108689.0,
3232,2108639.0,
3233,2108636.0,
3234,2108754.0,
3235,2108632.0,
3236,2108655.0,
3237,2108735.0,
3238,2108634.0,
3239,2108676.0,
3240,2108704.0,
3241,2108806.0,
3242,2108899.0,
3243,2108955.0,
3244,2108882.0,
3245,2108908.0,
3246,2108925.0,
3247,2108604.0,
3248,2108704.0,
3249,2108681.0,
3250,2108699.0,
3251,2108737.0,
3252,2108655.0,
3253,2108729.0,
3254,2108689.0,
3255,2108677.0,
3256,2108698.0,
3257,2108729.0,
3258,2108722.0,
3259,2108729.0,
3260,2108672.0,
3261,2108622.0,
3262,2108855.0,
3263,2108702.0,
3264,2108720.0,
3265,2108798.0,
3266,2108671.0,
3267,2108765.0,
3268,2108763.0,
3269,2108792.0,
3270,2108932.0,
3271,2108864.0,
3272,2108911.0,
3273,2108939.0,
3274,2108595.0,
3275,2108696.0,
3276,2108770.0,
3277,2108792.0,
3278,2108700.0,
3279,2108772.0,
3280,2108682.0,
3281,2108746.0,
3282,2108728.0,
3283,2108699.0,
3284,2108680.0,
3285,2108729.0,
3286,2108690.0,
3287,2108648.0,
3288,2108699.0,
3289,2108687.0,
3290,2108752.0,
3291,2108746.0,
3292,2108712.0,
3293,2108818.0,
3294,2108753.0,
3295,2108696.0,
3296,2108739.0,
3297,2108636.0,
3298,2108704.0,
3299,2143475.0,
3300,2210889.0,
3301,2106472.0,
3302,2109475.0,
3303,2102974.0,
3304,2103408.0,
3305,2102919.0,
3306,2102164.0,
3307,2103671.0,
3308,2103044.0,
3309,2106277.0,
3310,2103137.0,
3311,2108231.0,
3312,2102909.0,
3313,2109132.0,
3314,2103075.0,
3315,2107586.0,
3316,2103247.0,
3317,2105659.0,
3318,2103830.0,
3319,2104676.0,
3320,2104223.0,
3321,2104436.0,
3322,2104421.0,
3323,2104275.0,
3324,2104496.0,
3325,2104198.0,
3326,2104561.0,
3327,2104132.0,
3328,2104503.0,
3329,2104112.0,
3330,2104688.0,
3331,2104147.0,
3332,2104523.0,
3333,2104190.0,
3334,2104394.0,
3335,2104356.0,
3336,2104366.0,
3337,2104360.0,
3338,2104419.0,
3339,2104418.0,
3340,2104396.0,
3341,2104317.0,
3342,2104361.0,
3343,2104302.0,
3344,2104399.0,
3345,2104294.0,
3346,2104560.0,
3347,2104321.0,
3348,2104360.0,
3349,2104399.0,
3350,2104299.0,
3351,2104394.0,
3352,2104178.0,
3353,2104450.0,
3354,2104283.0,
3355,2104458.0,
3356,2104318.0,
3357,2104422.0,
3358,2104369.0,
3359,2104322.0,
3360,2104338.0,
3361,2104312.0,
3362,2104383.0,
3363,2104355.0,
3364,2104556.0,
3365,2104440.0,
3366,2104355.0,
3367,2104319.0,
3368,2104444.0,
3369,2104387.0,
3370,2104390.0,
3371,2104330.0,
3372,2104554.0,
3373,2104352.0,
3374,2104562.0,
3375,2104545.0,
3376,2104544.0,
3377,2104569.0,
3378,2104526.0,
3379,2104327.0,
3380,2104334.0,
3381,2104415.0,
3382,2104397.0,
3383,2104392.0,
3384,2104392.0,
3385,2104440.0,
3386,2104579.0,
3387,2104379.0,
3388,2104401.0,
3389,2104392.0,
3390,2104545.0,
3391,2104570.0,
3392,2104520.0,
3393,2104388.0,
3394,2104467.0,
3395,2104330.0,
3396,2104265.0,
3397,2104380.0,
3398,2104326.0,
3399,2104366.0,
3400,2104485.0,
3401,2104483.0,
3402,2104542.0,
3403,2104418.0,
3404,2104298.0,
3405,2104251.0,
3406,2104443.0,
3407,2104304.0,
3408,2104333.0,
3409,2104347.0,
3410,2104419.0,
3411,2104377.0,
3412,2104317.0,
3413,2104390.0,
3414,2104409.0,
3415,2104460.0,
3416,2104579.0,
3417,2104366.0,
3418,2104398.0,
3419,2104353.0,
3420,2104280.0,
3421,2104383.0,
3422,2104311.0,
3423,2104390.0,
3424,2104491.0,
3425,2104587.0,
3426,2104532.0,
3427,2104543.0,
3428,2104470.0,
3429,2104502.0,
3430,2104364.0,
3431,2104296.0,
3432,2104340.0,
3433,2104341.0,
3434,2104306.0,
3435,2104406.0,
3436,2104427.0,
3437,2104497.0,
3438,2104549.0,
3439,2104489.0,
3440,2104364.0,
3441,2104363.0,
3442,2104373.0,
3443,2104563.0,
3444,2104398.0,
3445,2104510.0,
3446,2104574.0,
3447,2104358.0,
3448,2104328.0,
3449,2104364.0,
3450,2104397.0,
3451,2104412.0,
3452,2104607.0,
3453,2104478.0,
3454,2104558.0,
3455,2104426.0,
3456,2104403.0,
3457,2104304.0,
3458,2104333.0,
3459,2104356.0,
3460,2104376.0,
3461,2104364.0,
3462,2104393.0,
3463,2104406.0,
3464,2104508.0,
3465,2104542.0,
3466,2104357.0,
3467,2104427.0,
3468,2104365.0,
3469,2104520.0,
3470,2104338.0,
3471,2104299.0,
3472,2104360.0,
3473,2104583.0,
3474,2104330.0,
3475,2104301.0,
3476,2104378.0,
3477,2104352.0,
3478,2104537.0,
3479,2104311.0,
3480,2104468.0,
3481,2104483.0,
3482,2104328.0,
3483,2104538.0,
3484,2104322.0,
3485,2104574.0,
3486,2104493.0,
3487,2104504.0,
3488,2104371.0,
3489,2104509.0,
3490,2104342.0,
3491,2104576.0,
3492,2104448.0,
3493,2104449.0,
3494,2104525.0,
3495,2104447.0,
3496,2104284.0,
3497,2104348.0,
3498,2104344.0,
3499,2104389.0,
3500,2104256.0,
3501,2104345.0,
3502,2104359.0,
3503,2104330.0,
3504,2104326.0,
3505,2104474.0,
3506,2104394.0,
3507,2104519.0,
3508,2104560.0,
3509,2104325.0,
3510,2104514.0,
3511,2104317.0,
3512,2104414.0,
3513,2104372.0,
3514,2104337.0,
3515,2104290.0,
3516,2104565.0,
3517,2104604.0,
3518,2104426.0,
3519,2104360.0,
3520,2104348.0,
3521,2104310.0,
3522,2104459.0,
3523,2104399.0,
3524,2104581.0,
3525,2104552.0,
3526,2104274.0,
3527,2104359.0,
3528,2104357.0,
3529,2104401.0,
3530,2104366.0,
3531,2104388.0,
3532,2104388.0,
3533,2104399.0,
3534,2104414.0,
3535,2104344.0,
3536,2104355.0,
3537,2104484.0,
3538,2104566.0,
3539,2104375.0,
3540,2104386.0,
3541,2104334.0,
3542,2104329.0,
3543,2104299.0,
3544,2104367.0,
3545,2104508.0,
3546,2104400.0,
3547,2104378.0,
3548,2104337.0,
3549,2104299.0,
3550,2104440.0,
3551,2104392.0,
3552,2104555.0,
3553,2104553.0,
3554,2104623.0,
3555,2104296.0,
3556,2104388.0,
3557,2104316.0,
3558,2104293.0,
3559,2104247.0,
3560,2104369.0,
3561,2104290.0,
3562,2104246.0,
3563,2104250.0,
3564,2104314.0,
3565,2104374.0,
3566,2104469.0,
3567,2104313.0,
3568,2104573.0,
3569,2104343.0,
3570,2104536.0,
3571,2104320.0,
3572,2104327.0,
3573,2104333.0,
3574,2104415.0,
3575,2104484.0,
3576,2104380.0,
3577,2104402.0,
3578,2104454.0,
3579,2104335.0,
3580,2104357.0,
3581,2104364.0,
3582,2104300.0,
3583,2104370.0,
3584,2104491.0,
3585,2104392.0,
3586,2104457.0,
3587,2104476.0,
3588,2104367.0,
3589,2104238.0,
3590,2104362.0,
3591,2104546.0,
3592,2104558.0,
3593,2104572.0,
3594,2104408.0,
3595,2104348.0,
3596,2104295.0,
3597,2104387.0,
3598,2104328.0,
3599,2104364.0,
3600,2104359.0,
3601,2104303.0,
3602,2104344.0,
3603,2104299.0,
3604,2104349.0,
3605,2104334.0,
3606,2104315.0,
3607,2104326.0,
3608,2104373.0,
3609,2104339.0,
3610,2104308.0,
3611,2104259.0,
3612,2104347.0,
3613,2104342.0,
3614,2104307.0,
3615,2104369.0,
3616,2104334.0,
3617,2104406.0,
3618,2104328.0,
3619,2104311.0,
3620,2104309.0,
3621,2104337.0,
3622,2104324.0,
3623,2104415.0,
3624,2104382.0,
3625,2104347.0,
3626,2104469.0,
3627,2104316.0,
3628,2104361.0,
3629,2104418.0,
3630,2104462.0,
3631,2104513.0,
3632,2104523.0,
3633,2104545.0,
3634,2104522.0,
3635,2104284.0,
3636,2104370.0,
3637,2104377.0,
3638,2104394.0,
3639,2104354.0,
3640,2104363.0,
3641,2104424.0,
3642,2104384.0,
3643,2104346.0,
3644,2104554.0,
3645,2104542.0,
3646,2104536.0,
3647,2104533.0,
3648,2104524.0,
3649,2104516.0,
3650,2104485.0,
3651,2104439.0,
3652,2104396.0,
3653,2104327.0,
3654,2104350.0,
3655,2104281.0,
3656,2104573.0,
3657,2104390.0,
3658,2104268.0,
3659,2104296.0,
3660,2104327.0,
3661,2104354.0,
3662,2104313.0,
3663,2104324.0,
3664,2104533.0,
3665,2104556.0,
3666,2104538.0,
3667,2104310.0,
3668,2104551.0,
3669,2104458.0,
3670,2104370.0,
3671,2104485.0,
3672,2104402.0,
3673,2104392.0,
3674,2104501.0,
3675,2104516.0,
3676,2104484.0,
3677,2104365.0,
3678,2104295.0,
3679,2104328.0,
3680,2104350.0,
3681,2104506.0,
3682,2104540.0,
3683,2104368.0,
3684,2104317.0,
3685,2104339.0,
3686,2104419.0,
3687,2104459.0,
3688,2104333.0,
3689,2104311.0,
3690,2104433.0,
3691,2104429.0,
3692,2104307.0,
3693,2104337.0,
3694,2104419.0,
3695,2104231.0,
3696,2103824.0,
3697,2102034.0,
3698,2101917.0,
3699,2102234.0,
3700,2103598.0,
3701,2121464.0,
3702,2116964.0,
3703,2109928.0,
3704,2114115.0,
3705,2122885.0,
3706,2118500.0,
3707,2113012.0,
3708,2111629.0,
3709,2099333.0,
3710,2095882.0,
3711,2094884.0,
3712,2092932.0,
3713,2093067.0,
3714,2093823.0,
3715,2094447.0,
3716,2094817.0,
3717,2095011.0,
3718,2093763.0,
3719,2086305.0,
3720,2086395.0,
3721,2104643.0,
3722,2100538.0,
3723,2100503.0,
3724,2100410.0,
3725,2100527.0,
3726,2100444.0,
3727,2100268.0,
3728,2100285.0,
3729,2100329.0,
3730,2100275.0,
3731,2100259.0,
3732,2100312.0,
3733,2100209.0,
3734,2100356.0,
3735,2100369.0,
3736,2100279.0,
3737,2100471.0,
3738,2100263.0,
3739,2100347.0,
3740,2100198.0,
3741,2100288.0,
3742,2100266.0,
3743,2100266.0,
3744,2100320.0,
3745,2100340.0,
3746,2100360.0,
3747,2100326.0,
3748,2100276.0,
3749,2100282.0,
3750,2100332.0,
3751,2100253.0,
3752,2100271.0,
3753,2100231.0,
3754,2100343.0,
3755,2100247.0,
3756,2100305.0,
3757,2100260.0,
3758,2100300.0,
3759,2100330.0,
3760,2100281.0,
3761,2100293.0,
3762,2100280.0,
3763,2100236.0,
3764,2100259.0,
3765,2100324.0,
3766,2100467.0,
3767,2100493.0,
3768,2100307.0,
3769,2100310.0,
3770,2100242.0,
3771,2100296.0,
3772,2100364.0,
3773,2100255.0,
3774,2100229.0,
3775,2100513.0,
3776,2100258.0,
3777,2100450.0,
3778,2100426.0,
3779,2100541.0,
3780,2100524.0,
3781,2100325.0,
3782,2100297.0,
3783,2100227.0,
3784,2100320.0,
3785,2100208.0,
3786,2100311.0,
3787,2100305.0,
3788,2100304.0,
3789,2100224.0,
3790,2100497.0,
3791,2100312.0,
3792,2100289.0,
3793,2100309.0,
3794,2100291.0,
3795,2100489.0,
3796,2100427.0,
3797,2100389.0,
3798,2100316.0,
3799,2100312.0,
3800,2100422.0,
3801,2100445.0,
3802,2100409.0,
3803,2100344.0,
3804,2100230.0,
3805,2100309.0,
3806,2100300.0,
3807,2100451.0,
3808,2100416.0,
3809,2100498.0,
3810,2100302.0,
3811,2100287.0,
3812,2100301.0,
3813,2100398.0,
3814,2100255.0,
3815,2100334.0,
3816,2100331.0,
3817,2100436.0,
3818,2100486.0,
3819,2100472.0,
3820,2100446.0,
3821,2100567.0,
3822,2100414.0,
3823,2100272.0,
3824,2100271.0,
3825,2100258.0,
3826,2100318.0,
3827,2100215.0,
3828,2100338.0,
3829,2100253.0,
3830,2100318.0,
3831,2100332.0,
3832,2100203.0,
3833,2100348.0,
3834,2100282.0,
3835,2100337.0,
3836,2100352.0,
3837,2100486.0,
3838,2100473.0,
3839,2100500.0,
3840,2100313.0,
3841,2100444.0,
3842,2100465.0,
3843,2100539.0,
3844,2100503.0,
3845,2100328.0,
3846,2100357.0,
3847,2100308.0,
3848,2100412.0,
3849,2100263.0,
3850,2100217.0,
3851,2100303.0,
3852,2100330.0,
3853,2100328.0,
3854,2100483.0,
3855,2100488.0,
3856,2100462.0,
3857,2100500.0,
3858,2100330.0,
3859,2100293.0,
3860,2100290.0,
3861,2100398.0,
3862,2100263.0,
3863,2100274.0,
3864,2100285.0,
3865,2100344.0,
3866,2100231.0,
3867,2100281.0,
3868,2100454.0,
3869,2100334.0,
3870,2100384.0,
3871,2100270.0,
3872,2100241.0,
3873,2100246.0,
3874,2100242.0,
3875,2100260.0,
3876,2100303.0,
3877,2100239.0,
3878,2100242.0,
3879,2100225.0,
3880,2100243.0,
3881,2100295.0,
3882,2100352.0,
3883,2100237.0,
3884,2100441.0,
3885,2100218.0,
3886,2100313.0,
3887,2100297.0,
3888,2100285.0,
3889,2100480.0,
3890,2100393.0,
3891,2100221.0,
3892,2100271.0,
3893,2100281.0,
3894,2100303.0,
3895,2100310.0,
3896,2100282.0,
3897,2100300.0,
3898,2100271.0,
3899,2100277.0,
3900,2100309.0,
3901,2100251.0,
3902,2100307.0,
3903,2100324.0,
3904,2100311.0,
3905,2100451.0,
3906,2100316.0,
3907,2100239.0,
3908,2100225.0,
3909,2100322.0,
3910,2100251.0,
3911,2100285.0,
3912,2100265.0,
3913,2100405.0,
3914,2100292.0,
3915,2100492.0,
3916,2100327.0,
3917,2100494.0,
3918,2100353.0,
3919,2100391.0,
3920,2100381.0,
3921,2100341.0,
3922,2100356.0,
3923,2100393.0,
3924,2100414.0,
3925,2100233.0,
3926,2100420.0,
3927,2100355.0,
3928,2100314.0,
3929,2100310.0,
3930,2100555.0,
3931,2100565.0,
3932,2100521.0,
3933,2100196.0,
3934,2100279.0,
3935,2100282.0,
3936,2100245.0,
3937,2100245.0,
3938,2100324.0,
3939,2100265.0,
3940,2100316.0,
3941,2100288.0,
3942,2100276.0,
3943,2100263.0,
3944,2100407.0,
3945,2100448.0,
3946,2100266.0,
3947,2100294.0,
3948,2100445.0,
3949,2100428.0,
3950,2100262.0,
3951,2100257.0,
3952,2100397.0,
3953,2100258.0,
3954,2100224.0,
3955,2100219.0,
3956,2100274.0,
3957,2100277.0,
3958,2100322.0,
3959,2100511.0,
3960,2100452.0,
3961,2100355.0,
3962,2100235.0,
3963,2100443.0,
3964,2100517.0,
3965,2100453.0,
3966,2100224.0,
3967,2100474.0,
3968,2100254.0,
3969,2100407.0,
3970,2100294.0,
3971,2100286.0,
3972,2100248.0,
3973,2100296.0,
3974,2100326.0,
3975,2100360.0,
3976,2100172.0,
3977,2100273.0,
3978,2100465.0,
3979,2100284.0,
3980,2100444.0,
3981,2100438.0,
3982,2100364.0,
3983,2100241.0,
3984,2100278.0,
3985,2100316.0,
3986,2100255.0,
3987,2100293.0,
3988,2100315.0,
3989,2100379.0,
3990,2100434.0,
3991,2100276.0,
3992,2100294.0,
3993,2100262.0,
3994,2100232.0,
3995,2100293.0,
3996,2100429.0,
3997,2100422.0,
3998,2100424.0,
3999,2100294.0,
4000,2100247.0,
4001,2100368.0,
4002,2100254.0,
4003,2100270.0,
4004,2100314.0,
4005,2100346.0,
4006,2100295.0,
4007,2100422.0,
4008,2100301.0,
4009,2100305.0,
4010,2100254.0,
4011,2100225.0,
4012,2100296.0,
4013,2100266.0,
4014,2100320.0,
4015,2100368.0,
4016,2100359.0,
4017,2100170.0,
4018,2100223.0,
4019,2100256.0,
4020,2100244.0,
4021,2100298.0,
4022,2100444.0,
4023,2100392.0,
4024,2100413.0,
4025,2100380.0,
4026,2100461.0,
4027,2100233.0,
4028,2100206.0,
4029,2100281.0,
4030,2100134.0,
4031,2100320.0,
4032,2100248.0,
4033,2100336.0,
4034,2100468.0,
4035,2100416.0,
4036,2100243.0,
4037,2100281.0,
4038,2100255.0,
4039,2100443.0,
4040,2100434.0,
4041,2100257.0,
4042,2100272.0,
4043,2100175.0,
4044,2100215.0,
4045,2100240.0,
4046,2100180.0,
4047,2100286.0,
4048,2100306.0,
4049,2100290.0,
4050,2100179.0,
4051,2100206.0,
4052,2100403.0,
4053,2100219.0,
4054,2100314.0,
4055,2100390.0,
4056,2100262.0,
4057,2100418.0,
4058,2100260.0,
4059,2100252.0,
4060,2100402.0,
4061,2100229.0,
4062,2100237.0,
4063,2100351.0,
4064,2100261.0,
4065,2100154.0,
4066,2100227.0,
4067,2100356.0,
4068,2100378.0,
4069,2100277.0,
4070,2100265.0,
4071,2100408.0,
4072,2100257.0,
4073,2100294.0,
4074,2100418.0,
4075,2100330.0,
4076,2100330.0,
4077,2100429.0,
4078,2100236.0,
4079,2100431.0,
4080,2100300.0,
4081,2100353.0,
4082,2100218.0,
4083,2100270.0,
4084,2100205.0,
4085,2100383.0,
4086,2100459.0,
4087,2100463.0,
4088,2100315.0,
4089,2100214.0,
4090,2100228.0,
4091,2100308.0,
4092,2100367.0,
4093,2100197.0,
4094,2100238.0,
4095,2100371.0,
4096,2100407.0,
4097,2100205.0,
4098,2100450.0,
4099,2100281.0,
4100,2100198.0,
4101,2100204.0,
4102,2100210.0,
4103,2100370.0,
4104,2100207.0,
4105,2100245.0,
4106,2100275.0,
4107,2100416.0,
4108,2100306.0,
4109,2100150.0,
4110,2100284.0,
4111,2100219.0,
4112,2100495.0,
4113,2100403.0,
4114,2100215.0,
4115,2100304.0,
4116,2100259.0,
4117,2100351.0,
4118,2100253.0,
4119,2100274.0,
4120,2100248.0,
4121,2100245.0,
4122,2100201.0,
4123,2100354.0,
4124,2100293.0,
4125,2100358.0,
4126,2100281.0,
4127,2100222.0,
4128,2100276.0,
4129,2100273.0,
4130,2100427.0,
4131,2100173.0,
4132,2100371.0,
4133,2100435.0,
4134,2100290.0,
4135,2100295.0,
4136,2100262.0,
4137,2100273.0,
4138,2100154.0,
4139,2100251.0,
4140,2100385.0,
4141,2100268.0,
4142,2100276.0,
4143,2100295.0,
4144,2100319.0,
4145,2100267.0,
4146,2100254.0,
4147,2100277.0,
4148,2100321.0,
4149,2100208.0,
4150,2100364.0,
4151,2100300.0,
4152,2100291.0,
4153,2100357.0,
4154,2100461.0,
4155,2100271.0,
4156,2100291.0,
4157,2100294.0,
4158,2100269.0,
4159,2100410.0,
4160,2100230.0,
4161,2100198.0,
4162,2100465.0,
4163,2100232.0,
4164,2100419.0,
4165,2100210.0,
4166,2100271.0,
4167,2100419.0,
4168,2100302.0,
4169,2100251.0,
4170,2100231.0,
4171,2100410.0,
4172,2100243.0,
4173,2100227.0,
4174,2100332.0,
4175,2100471.0,
4176,2100216.0,
4177,2100178.0,
4178,2100410.0,
4179,2100248.0,
4180,2100250.0,
4181,2100261.0,
4182,2100246.0,
4183,2100396.0,
4184,2100236.0,
4185,2100165.0,
4186,2100357.0,
4187,2100427.0,
4188,2100214.0,
4189,2100267.0,
4190,2100254.0,
4191,2100205.0,
4192,2100376.0,
4193,2100236.0,
4194,2100391.0,
4195,2100391.0,
4196,2100265.0,
4197,2100226.0,
4198,2100335.0,
4199,2100380.0,
4200,2100497.0,
4201,2100456.0,
4202,2100201.0,
4203,2100283.0,
4204,2100228.0,
4205,2100227.0,
4206,2100462.0,
4207,2100254.0,
4208,2100261.0,
4209,2100268.0,
4210,2100225.0,
4211,2100173.0,
4212,2100254.0,
4213,2100438.0,
4214,2100458.0,
4215,2100249.0,
4216,2100263.0,
4217,2100258.0,
4218,2100313.0,
4219,2100357.0,
4220,2100193.0,
4221,2100352.0,
4222,2100236.0,
4223,2100235.0,
4224,2100277.0,
4225,2100432.0,
4226,2100231.0,
4227,2100237.0,
4228,2100224.0,
4229,2100283.0,
4230,2100384.0,
4231,2100484.0,
4232,2100241.0,
4233,2100400.0,
4234,2100408.0,
4235,2100408.0,
4236,2100260.0,
4237,2100281.0,
4238,2100277.0,
4239,2100232.0,
4240,2100256.0,
4241,2100249.0,
4242,2100182.0,
4243,2100237.0,
4244,2100369.0,
4245,2100229.0,
4246,2100474.0,
4247,2100210.0,
4248,2100390.0,
4249,2100174.0,
4250,2100256.0,
4251,2100245.0,
4252,2100239.0,
4253,2100170.0,
4254,2100137.0,
4255,2100176.0,
4256,2100234.0,
4257,2100212.0,
4258,2100245.0,
4259,2100231.0,
4260,2100206.0,
4261,2100419.0,
4262,2100247.0,
4263,2100201.0,
4264,2100193.0,
4265,2100172.0,
4266,2100215.0,
4267,2100225.0,
4268,2100235.0,
4269,2100425.0,
4270,2100196.0,
4271,2100293.0,
4272,2100392.0,
4273,2100485.0,
4274,2100443.0,
4275,2100316.0,
4276,2100440.0,
4277,2100393.0,
4278,2100441.0,
4279,2100297.0,
4280,2100366.0,
4281,2100259.0,
4282,2100346.0,
4283,2100419.0,
4284,2100250.0,
4285,2100232.0,
4286,2100203.0,
4287,2100450.0,
4288,2100153.0,
4289,2100182.0,
4290,2100345.0,
4291,2100189.0,
4292,2100332.0,
4293,2100225.0,
4294,2100477.0,
4295,2100468.0,
4296,2100275.0,
4297,2100227.0,
4298,2100352.0,
4299,2100225.0,
4300,2100253.0,
4301,2100155.0,
4302,2100328.0,
4303,2100251.0,
4304,2100163.0,
4305,2100221.0,
4306,2100260.0,
4307,2100173.0,
4308,2100220.0,
4309,2100174.0,
4310,2100246.0,
4311,2100420.0,
4312,2100361.0,
4313,2100211.0,
4314,2100201.0,
4315,2100250.0,
4316,2100338.0,
4317,2100412.0,
4318,2100347.0,
4319,2100168.0,
4320,2100242.0,
4321,2100499.0,
4322,2100354.0,
4323,2100391.0,
4324,2100212.0,
4325,2100283.0,
4326,2100329.0,
4327,2100279.0,
4328,2100473.0,
4329,2100423.0,
4330,2100234.0,
4331,2100222.0,
4332,2100111.0,
4333,2100256.0,
4334,2100348.0,
4335,2100244.0,
4336,2100337.0,
4337,2100386.0,
4338,2100423.0,
4339,2100242.0,
4340,2100204.0,
4341,2100213.0,
4342,2100392.0,
4343,2100335.0,
4344,2100496.0,
4345,2100360.0,
4346,2100386.0,
4347,2100187.0,
4348,2100144.0,
4349,2100212.0,
4350,2100403.0,
4351,2100366.0,
4352,2100251.0,
4353,2100253.0,
4354,2100481.0,
4355,2100214.0,
4356,2100244.0,
4357,2100324.0,
4358,2100421.0,
4359,2100204.0,
4360,2100206.0,
4361,2100302.0,
4362,2100522.0,
4363,2100169.0,
4364,2100264.0,
4365,2100221.0,
4366,2100420.0,
4367,2100202.0,
4368,2100258.0,
4369,2100162.0,
4370,2100414.0,
4371,2100317.0,
4372,2100181.0,
4373,2100235.0,
4374,2100149.0,
4375,2100206.0,
4376,2100363.0,
4377,2100405.0,
4378,2100432.0,
4379,2100389.0,
4380,2100197.0,
4381,2100213.0,
4382,2100260.0,
4383,2100208.0,
4384,2100226.0,
4385,2100215.0,
4386,2100206.0,
4387,2100242.0,
4388,2100185.0,
4389,2100418.0,
4390,2100384.0,
4391,2100331.0,
4392,2100375.0,
4393,2100205.0,
4394,2100212.0,
4395,2100257.0,
4396,2100250.0,
4397,2100417.0,
4398,2100171.0,
4399,2100254.0,
4400,2100200.0,
4401,2100467.0,
4402,2100148.0,
4403,2100212.0,
4404,2100271.0,
4405,2100344.0,
4406,2100400.0,
4407,2100137.0,
4408,2100080.0,
4409,2100330.0,
4410,2100384.0,
4411,2100357.0,
4412,2100324.0,
4413,2100192.0,
4414,2100227.0,
4415,2100296.0,
4416,2100513.0,
4417,2100389.0,
4418,2100155.0,
4419,2100219.0,
4420,2100168.0,
4421,2100222.0,
4422,2100416.0,
4423,2100400.0,
4424,2100198.0,
4425,2100251.0,
4426,2100398.0,
4427,2100246.0,
4428,2100430.0,
4429,2100230.0,
4430,2100260.0,
4431,2100224.0,
4432,2100458.0,
4433,2100218.0,
4434,2100316.0,
4435,2100214.0,
4436,2100167.0,
4437,2100242.0,
4438,2100258.0,
4439,2100471.0,
4440,2100348.0,
4441,2100252.0,
4442,2100252.0,
4443,2100273.0,
4444,2100451.0,
4445,2100360.0,
4446,2100303.0,
4447,2100303.0,
4448,2100408.0,
4449,2100233.0,
4450,2100445.0,
4451,2100399.0,
4452,2100378.0,
4453,2100409.0,
4454,2100307.0,
4455,2100374.0,
4456,2100190.0,
4457,2100353.0,
4458,2100205.0,
4459,2100328.0,
4460,2100213.0,
4461,2100373.0,
4462,2100173.0,
4463,2100234.0,
4464,2100327.0,
4465,2100412.0,
4466,2100341.0,
4467,2100243.0,
4468,2100190.0,
4469,2100239.0,
4470,2100207.0,
4471,2100178.0,
4472,2100259.0,
4473,2100227.0,
4474,2100278.0,
4475,2100442.0,
4476,2100282.0,
4477,2100415.0,
4478,2100227.0,
4479,2100226.0,
4480,2100239.0,
4481,2100381.0,
4482,2100225.0,
4483,2100239.0,
4484,2100479.0,
4485,2100241.0,
4486,2100200.0,
4487,2100257.0,
4488,2100181.0,
4489,2100384.0,
4490,2100209.0,
4491,2100287.0,
4492,2100255.0,
4493,2100283.0,
4494,2100309.0,
4495,2100359.0,
4496,2100239.0,
4497,2100241.0,
4498,2100299.0,
4499,2100243.0,
4500,2100475.0,
4501,2100188.0,
4502,2100373.0,
4503,2100201.0,
4504,2100218.0,
4505,2100205.0,
4506,2100254.0,
4507,2100269.0,
4508,2100200.0,
4509,2100203.0,
4510,2100175.0,
4511,2100222.0,
4512,2100159.0,
4513,2100263.0,
4514,2100416.0,
4515,2100386.0,
4516,2100341.0,
4517,2100229.0,
4518,2100238.0,
4519,2100189.0,
4520,2100241.0,
4521,2100228.0,
4522,2100287.0,
4523,2100425.0,
4524,2100354.0,
4525,2100202.0,
4526,2100208.0,
4527,2100337.0,
4528,2100473.0,
4529,2100162.0,
4530,2100267.0,
4531,2100150.0,
4532,2100165.0,
4533,2100219.0,
4534,2100393.0,
4535,2100385.0,
4536,2100420.0,
4537,2100411.0,
4538,2100292.0,
4539,2100144.0,
4540,2100185.0,
4541,2100250.0,
4542,2100332.0,
4543,2100372.0,
4544,2100191.0,
4545,2100233.0,
4546,2100240.0,
4547,2100237.0,
4548,2100448.0,
4549,2100337.0,
4550,2100177.0,
4551,2100226.0,
4552,2100232.0,
4553,2100260.0,
4554,2100362.0,
4555,2100425.0,
4556,2100396.0,
4557,2100381.0,
4558,2100424.0,
4559,2100391.0,
4560,2100219.0,
4561,2100171.0,
4562,2100270.0,
4563,2100234.0,
4564,2100250.0,
4565,2100171.0,
4566,2100237.0,
4567,2100396.0,
4568,2100450.0,
4569,2100231.0,
4570,2100444.0,
4571,2100396.0,
4572,2100378.0,
4573,2100271.0,
4574,2100196.0,
4575,2100228.0,
4576,2100209.0,
4577,2100222.0,
4578,2100258.0,
4579,2100243.0,
4580,2100308.0,
4581,2100407.0,
4582,2100123.0,
4583,2100231.0,
4584,2100253.0,
4585,2100193.0,
4586,2100172.0,
4587,2100270.0,
4588,2100223.0,
4589,2100170.0,
4590,2100203.0,
4591,2100271.0,
4592,2100166.0,
4593,2100273.0,
4594,2100424.0,
4595,2100383.0,
4596,2100328.0,
4597,2100447.0,
4598,2100260.0,
4599,2100208.0,
4600,2100175.0,
4601,2100205.0,
4602,2100239.0,
4603,2100351.0,
4604,2100226.0,
4605,2100214.0,
4606,2100260.0,
4607,2100247.0,
4608,2100203.0,
4609,2100318.0,
4610,2100317.0,
4611,2100366.0,
4612,2100359.0,
4613,2100398.0,
4614,2100176.0,
4615,2100378.0,
4616,2100333.0,
4617,2100348.0,
4618,2100217.0,
4619,2100259.0,
4620,2100275.0,
4621,2100225.0,
4622,2100384.0,
4623,2100275.0,
4624,2100156.0,
4625,2100232.0,
4626,2100324.0,
4627,2100286.0,
4628,2100366.0,
4629,2100246.0,
4630,2100421.0,
4631,2100260.0,
4632,2100254.0,
4633,2100263.0,
4634,2100184.0,
4635,2100217.0,
4636,2100267.0,
4637,2100161.0,
4638,2100265.0,
4639,2100270.0,
4640,2100284.0,
4641,2100422.0,
4642,2100417.0,
4643,2100372.0,
4644,2100419.0,
4645,2100474.0,
4646,2100389.0,
4647,2100335.0,
4648,2100409.0,
4649,2100221.0,
4650,2100490.0,
4651,2100160.0,
4652,2100211.0,
4653,2100116.0,
4654,2100223.0,
4655,2100269.0,
4656,2100213.0,
4657,2100289.0,
4658,2109539.0,
4659,2116767.0,
4660,2164513.0,
4661,2215029.0,
4662,2131544.0,
4663,2100048.0,
4664,2099512.0,
4665,2085211.0,
4666,2085444.0,
4667,2183225.0,
4668,3444171.0,
4669,4106864.0,
4670,4056330.0,
4671,3900458.0,
4672,2892309.0,
4673,2398173.0,
4674,2262294.0,
4675,3957031.0,
4676,4028890.0,
4677,4034449.0,
4678,4051045.0,
4679,4098606.0,
4680,4056616.0,
4681,4014059.0,
4682,4033690.0,
4683,4064447.0,
4684,4096286.0,
4685,4110435.0,
4686,3931250.0,
4687,3925235.0,
4688,3865239.0,
4689,3798866.0,
4690,3722925.0,
4691,3677602.0,
4692,3581613.0,
4693,3496453.0,
4694,3570057.0,
4695,3802990.0,
4696,4008754.0,
4697,3930120.0,
4698,4139892.0,
4699,4174785.0,
4700,4173216.0,
4701,4122927.0,
4702,4093933.0,
4703,3491053.0,
4704,2944938.0,
4705,3220238.0,
4706,3479484.0,
4707,3606846.0,
4708,3729076.0,
4709,3664681.0,
4710,3530824.0,
4711,3306563.0,
4712,3239315.0,
4713,3065385.0,
4714,3374015.0,
4715,4140667.0,
4716,4115949.0,
4717,4010633.0,
4718,3920872.0,
4719,3897015.0,
4720,3965734.0,
4721,4038999.0,
4722,4055840.0,
4723,3994146.0,
4724,4039558.0,
4725,4146894.0,
4726,3941473.0,
4727,4010160.0,
4728,4146943.0,
4729,4163862.0,
4730,4176604.0,
4731,4187723.0,
4732,4190625.0,
4733,4193283.0,
4734,4192958.0,
4735,4176855.0,
4736,4153350.0,
4737,4158621.0,
4738,4066610.0,
4739,4086995.0,
4740,4119741.0,
4741,4177525.0,
4742,4186557.0,
4743,4186983.0,
4744,4104138.0,
4745,3769162.0,
4746,3423054.0,
4747,3833264.0,
4748,3595985.0,
4749,3666303.0,
4750,3708869.0,
4751,3909647.0,
4752,4185116.0,
4753,4186556.0,
4754,3868973.0,
4755,3926153.0,
4756,3805282.0,
4757,4056581.0,
4758,4080891.0,
4759,4148118.0,
4760,4184980.0,
4761,4148842.0,
4762,4174851.0,
4763,4167516.0,
4764,4166284.0,
4765,4162864.0,
4766,4165576.0,
4767,4165053.0,
4768,4164818.0,
4769,4169304.0,
4770,4169193.0,
4771,4171764.0,
4772,4175472.0,
4773,4172407.0,
4774,4169711.0,
4775,4164277.0,
4776,4169807.0,
4777,4166798.0,
4778,4162161.0,
4779,4149183.0,
4780,4148677.0,
4781,4152040.0,
4782,4147201.0,
4783,4143237.0,
4784,4143200.0,
4785,4146284.0,
4786,4130653.0,
4787,4136189.0,
4788,4134512.0,
4789,4161875.0,
4790,4145602.0,
4791,3386498.0,
4792,3646620.0,
4793,3886560.0,
4794,3972967.0,
4795,4052919.0,
4796,3833820.0,
4797,3893566.0,
4798,3901179.0,
4799,3964118.0,
4800,4048340.0,
4801,4193882.0,
4802,4193722.0,
4803,4193663.0,
4804,4193686.0,
4805,4193782.0,
4806,4193525.0,
4807,4193023.0,
4808,4189540.0,
4809,4080794.0,
4810,3790427.0,
4811,4165040.0,
4812,3962253.0,
4813,3951274.0,
4814,3950311.0,
4815,3902558.0,
4816,3911218.0,
4817,3925655.0,
4818,3945635.0,
4819,3954616.0,
4820,3982453.0,
4821,4020716.0,
4822,4070111.0,
4823,4091124.0,
4824,4106667.0,
4825,4115012.0,
4826,4128482.0,
4827,4136335.0,
4828,4114745.0,
4829,4101636.0,
4830,4106847.0,
4831,4103176.0,
4832,4096705.0,
4833,4090581.0,
4834,4107709.0,
4835,4140665.0,
4836,4166487.0,
4837,4178896.0,
4838,4185070.0,
4839,4175048.0,
4840,4163705.0,
4841,4160064.0,
4842,4162628.0,
4843,4171066.0,
4844,4174790.0,
4845,4178804.0,
4846,4176778.0,
4847,4171991.0,
4848,4176902.0,
4849,4170259.0,
4850,4161028.0,
4851,4161521.0,
4852,4165606.0,
4853,4159730.0,
4854,4153574.0,
4855,4165650.0,
4856,4173782.0,
4857,4193526.0,
4858,4193977.0,
4859,4194003.0,
4860,4193989.0,
4861,4194035.0,
4862,4194004.0,
4863,4194021.0,
4864,4194013.0,
4865,4193994.0,
4866,4193746.0,
4867,4193874.0,
4868,4193930.0,
4869,4193844.0,
4870,4193873.0,
4871,4194030.0,
4872,4193951.0,
4873,4193766.0,
4874,4193617.0,
4875,4193686.0,
4876,4193551.0,
4877,4193426.0,
4878,4193157.0,
4879,4193134.0,
4880,4193361.0,
4881,4193390.0,
4882,4193436.0,
4883,4193456.0,
4884,4193374.0,
4885,4193521.0,
4886,4193680.0,
4887,4193673.0,
4888,4193665.0,
4889,4193655.0,
4890,4193618.0,
4891,4193565.0,
4892,4193680.0,
4893,4193680.0,
4894,4193644.0,
4895,4193659.0,
4896,4193621.0,
4897,4193552.0,
4898,4193647.0,
4899,4193676.0,
4900,4193642.0,
4901,4193596.0,
4902,4193646.0,
4903,4193705.0,
4904,4193709.0,
4905,4193779.0,
4906,4193788.0,
4907,4193773.0,
4908,4193803.0,
4909,4193825.0,
4910,2580578.0,
4911,2578980.0,
4912,2576956.0,
4913,2575291.0,
4914,2573702.0,
4915,2572153.0,
4916,2570499.0,
4917,2568401.0,
4918,2308014.0,
4919,2304374.0,
4920,2301181.0,
4921,2298206.0,
4922,2295393.0,
4923,2106200.0,
4924,2115162.0,
4925,2118307.0,
4926,2118944.0,
4927,2117326.0,
4928,2069284.0,
4929,2068061.0,
4930,2064777.0,
4931,2063162.0,
4932,2057699.0,
4933,2054751.0,
4934,2053165.0,
4935,2046467.0,
4936,2037431.0,
4937,2031881.0,
4938,2029817.0,
4939,2026129.0,
4940,2018347.0,
4941,2013306.0,
4942,2007839.0,
4943,1996898.0,
4944,1981447.0,
4945,1965418.0,
4946,1953805.0,
4947,1947040.0,
4948,1940165.0,
4949,1933208.0,
4950,1930334.0,
4951,1931175.0,
4952,1937899.0,
4953,1946579.0,
4954,1946027.0,
4955,1944233.0,
4956,1942794.0,
4957,1943271.0,
4958,1946817.0,
4959,1950346.0,
4960,1954208.0,
4961,1954745.0,
4962,1956515.0,
4963,1958737.0,
4964,1951729.0,
4965,1938560.0,
4966,1928725.0,
4967,1919425.0,
4968,1916135.0,
4969,1913354.0,
4970,1909321.0,
4971,1911610.0,
4972,1912465.0,
4973,1909942.0,
4974,1904652.0,
4975,1896935.0,
4976,1885722.0,
4977,1875137.0,
4978,1867194.0,
4979,1863211.0,
4980,1860705.0,
4981,1863647.0,
4982,1873965.0,
4983,1877825.0,
4984,1877498.0,
4985,1873979.0,
4986,1867695.0,
4987,1854629.0,
4988,1841678.0,
4989,1836130.0,
4990,1835573.0,
4991,1835193.0,
4992,1830442.0,
4993,1828074.0,
4994,1824430.0,
4995,1823645.0,
4996,1821936.0,
4997,1841481.0,
4998,1851049.0,
4999,1844701.0,
5000,1830250.0,
5001,1818274.0,
5002,1809002.0,
5003,1800710.0,
5004,1793475.0,
5005,1788105.0,
5006,1788888.0,
5007,1793746.0,
5008,1799056.0,
5009,1805693.0,
5010,1804466.0,
5011,1800909.0,
5012,1795952.0,
5013,1790842.0,
5014,1789584.0,
5015,1790561.0,
5016,1795086.0,
5017,1797937.0,
5018,1792756.0,
5019,1783212.0,
5020,1771753.0,
5021,1758295.0,
5022,1749500.0,
5023,1745494.0,
5024,1752934.0,
5025,1761569.0,
5026,1762044.0,
5027,1757161.0,
5028,1753988.0,
5029,1754132.0,
5030,1755430.0,
5031,1758395.0,
5032,1760363.0,
5033,1757718.0,
5034,1755622.0,
5035,1750632.0,
5036,1745819.0,
5037,1747151.0,
5038,1749301.0,
5039,1746338.0,
5040,1743854.0,
5041,1739673.0,
5042,1736226.0,
5043,1735834.0,
5044,1737631.0,
5045,1746268.0,
5046,1761972.0,
5047,1780887.0,
5048,1796641.0,
5049,1813077.0,
5050,1824723.0,
5051,1825857.0,
5052,1819697.0,
5053,1812522.0,
5054,1804075.0,
5055,1792599.0,
5056,1774200.0,
5057,1771437.0,
5058,1789907.0,
5059,1829765.0,
5060,1858272.0,
5061,1870860.0,
5062,1852214.0,
5063,1855318.0,
5064,1855245.0,
5065,1868997.0,
5066,1863389.0,
5067,1881546.0,
5068,1886555.0,
5069,1879004.0,
5070,1887632.0,
5071,1904760.0,
5072,1914851.0,
5073,1919252.0,
5074,1922973.0,
5075,1930899.0,
5076,1940241.0,
5077,1939606.0,
5078,1931854.0,
5079,1935531.0,
5080,1961987.0,
5081,2001158.0,
5082,2006973.0,
5083,1978018.0,
5084,1962680.0,
5085,1950330.0,
5086,1943846.0,
5087,1937371.0,
5088,1933134.0,
5089,1933328.0,
5090,1931899.0,
5091,1933891.0,
5092,1942995.0,
5093,1954210.0,
5094,1962133.0,
5095,1969979.0,
5096,1979781.0,
5097,1971108.0,
5098,1962001.0,
5099,1966187.0,
5100,1960701.0,
5101,1960099.0,
5102,1967921.0,
5103,1980349.0,
5104,1993169.0,
5105,2005348.0,
5106,2011808.0,
5107,2017693.0,
5108,2019819.0,
5109,2026186.0,
5110,2039160.0,
5111,2051655.0,
5112,2049183.0,
5113,2038604.0,
5114,2038084.0,
5115,2044395.0,
5116,2048686.0,
5117,2052184.0,
5118,2049805.0,
5119,2044443.0,
5120,2041023.0,
5121,2038815.0,
5122,2034819.0,
5123,2025597.0,
5124,2015908.0,
5125,2013553.0,
5126,2019543.0,
5127,2024966.0,
5128,2018623.0,
5129,2017517.0,
5130,2024837.0,
5131,2029067.0,
5132,2025751.0,
5133,2021698.0,
5134,2016145.0,
5135,2008924.0,
5136,2002645.0,
5137,1997604.0,
5138,1991919.0,
5139,1989611.0,
5140,1995166.0,
5141,2006080.0,
5142,2012389.0,
5143,2008021.0,
5144,2007007.0,
5145,2003910.0,
5146,1996565.0,
5147,1987046.0,
5148,1980274.0,
5149,1978526.0,
5150,1978615.0,
5151,1978032.0,
5152,1977051.0,
5153,1975474.0,
5154,1972804.0,
5155,1975157.0,
5156,1979882.0,
5157,1983531.0,
5158,1978871.0,
5159,1971878.0,
5160,1973049.0,
5161,1978086.0,
5162,1978882.0,
5163,1976494.0,
5164,1975153.0,
5165,1971933.0,
5166,1969162.0,
5167,1968111.0,
5168,1966244.0,
5169,1963374.0,
5170,1960139.0,
5171,1964687.0,
5172,1969125.0,
5173,1966752.0,
5174,1957475.0,
5175,1941220.0,
5176,1955242.0,
5177,1964957.0,
5178,1971910.0,
5179,1945214.0,
5180,1927895.0,
5181,1919818.0,
5182,1912553.0,
5183,1909074.0,
5184,1910484.0,
5185,1921933.0,
5186,1942856.0,
5187,1965449.0,
5188,1962567.0,
5189,1941421.0,
5190,1943470.0,
5191,1946516.0,
5192,1948759.0,
5193,1951589.0,
5194,1954786.0,
5195,1960447.0,
5196,1965014.0,
5197,1963828.0,
5198,1962425.0,
5199,1960910.0,
5200,1961944.0,
5201,1967313.0,
5202,1978242.0,
5203,1977355.0,
5204,1967473.0,
5205,1967645.0,
5206,1978893.0,
5207,1986189.0,
5208,1984961.0,
5209,1982791.0,
5210,1978765.0,
5211,1974326.0,
5212,1967413.0,
5213,1958965.0,
5214,1949423.0,
5215,1942510.0,
5216,1941078.0,
5217,1950236.0,
5218,1962888.0,
5219,1962575.0,
5220,1956710.0,
5221,1962848.0,
5222,1972339.0,
5223,1972216.0,
5224,1963280.0,
5225,1955698.0,
5226,1950366.0,
5227,1946455.0,
5228,1946060.0,
5229,1950035.0,
5230,1952368.0,
5231,1951152.0,
5232,1962471.0,
5233,1969426.0,
5234,1960565.0,
5235,1945124.0,
5236,1936788.0,
5237,1941222.0,
5238,1946876.0,
5239,1950277.0,
5240,1951238.0,
5241,1952408.0,
5242,1953790.0,
5243,1953818.0,
5244,1953149.0,
5245,1949130.0,
5246,1948163.0,
5247,1957875.0,
5248,1960646.0,
5249,1951240.0,
5250,1943427.0,
5251,1943405.0,
5252,1947919.0,
5253,1938947.0,
5254,1930186.0,
5255,1922716.0,
5256,1916464.0,
5257,1912386.0,
5258,1909098.0,
5259,1902652.0,
5260,1902802.0,
5261,1910781.0,
5262,1936613.0,
5263,1952783.0,
5264,1942167.0,
5265,1941980.0,
5266,1955277.0,
5267,1964460.0,
5268,1963078.0,
5269,1957328.0,
5270,1950323.0,
5271,1943164.0,
5272,1939514.0,
5273,1938034.0,
5274,1937202.0,
5275,1935648.0,
5276,1935678.0,
5277,1948379.0,
5278,1958543.0,
5279,1949597.0,
5280,1937962.0,
5281,1934580.0,
5282,1938556.0,
5283,1942244.0,
5284,1949348.0,
5285,1954211.0,
5286,1955860.0,
5287,1955649.0,
5288,1953291.0,
5289,1946518.0,
5290,1938516.0,
5291,1934532.0,
5292,1949369.0,
5293,1968381.0,
5294,1966897.0,
5295,1962565.0,
5296,1964556.0,
5297,1975574.0,
5298,1986686.0,
5299,1987031.0,
5300,1978625.0,
5301,1966100.0,
5302,1955003.0,
5303,1946135.0,
5304,1940994.0,
5305,1936914.0,
5306,1934684.0,
5307,1936486.0,
5308,1944189.0,
5309,1950886.0,
5310,1942266.0,
5311,1934894.0,
5312,1933668.0,
5313,1930159.0,
5314,1924188.0,
5315,1919013.0,
5316,1915911.0,
5317,1914153.0,
5318,1913098.0,
5319,1914305.0,
5320,1913670.0,
5321,1909667.0,
5322,1909117.0,
5323,1920519.0,
5324,1926457.0,
5325,1919399.0,
5326,1921751.0,
5327,1926478.0,
5328,1930988.0,
5329,1932936.0,
5330,1929226.0,
5331,1925661.0,
5332,1920572.0,
5333,1913197.0,
5334,1908551.0,
5335,1906085.0,
5336,1910905.0,
5337,1926791.0,
5338,1943947.0,
5339,1957014.0,
5340,1952632.0,
5341,1955674.0,
5342,1969849.0,
5343,1981084.0,
5344,1979064.0,
5345,1969952.0,
5346,1964656.0,
5347,1962917.0,
5348,1961685.0,
5349,1961651.0,
5350,1961167.0,
5351,1959615.0,
5352,1962324.0,
5353,1972283.0,
5354,1984825.0,
5355,1981683.0,
5356,1978926.0,
5357,1979769.0,
5358,1985791.0,
5359,1989497.0,
5360,1990444.0,
5361,1990623.0,
5362,1988351.0,
5363,1983840.0,
5364,1980340.0,
5365,1974886.0,
5366,1968970.0,
5367,1973174.0,
5368,1985479.0,
5369,1983595.0,
5370,1973136.0,
5371,1974387.0,
5372,1982954.0,
5373,1994984.0,
5374,1998648.0,
5375,1989534.0,
5376,1980097.0,
5377,1975025.0,
5378,1970745.0,
5379,1971095.0,
5380,1970517.0,
5381,1971373.0,
5382,1980403.0,
5383,1995270.0,
5384,1997396.0,
5385,1989073.0,
5386,1983355.0,
5387,1986124.0,
5388,1992079.0,
5389,1993341.0,
5390,1993831.0,
5391,1991391.0,
5392,1987087.0,
5393,1984649.0,
5394,1982803.0,
5395,1978681.0,
5396,1971895.0,
5397,1968485.0,
5398,1986117.0,
5399,2001200.0,
5400,1997382.0,
5401,1992481.0,
5402,1991342.0,
5403,1993720.0,
5404,1996586.0,
5405,1999777.0,
5406,2000085.0,
5407,1997315.0,
5408,1993113.0,
5409,1992055.0,
5410,1992108.0,
5411,1994365.0,
5412,1998059.0,
5413,2013583.0,
5414,2031594.0,
5415,2039453.0,
5416,2029807.0,
5417,2032413.0,
5418,2040831.0,
5419,2050575.0,
5420,2055184.0,
5421,2054063.0,
5422,2053848.0,
5423,2052686.0,
5424,2051789.0,
5425,2051982.0,
5426,2048858.0,
5427,2045882.0,
5428,2045398.0,
5429,2049281.0,
5430,2052711.0,
5431,2042129.0,
5432,2043714.0,
5433,2058743.0,
5434,2076291.0,
5435,2091345.0,
5436,2093262.0,
5437,2086994.0,
5438,2077431.0,
5439,2069494.0,
5440,2063355.0,
5441,2061385.0,
5442,2060592.0,
5443,2065214.0,
5444,2082028.0,
5445,2091134.0,
5446,2088184.0,
5447,2101228.0,
5448,2116250.0,
5449,2131128.0,
5450,2134189.0,
5451,2132802.0,
5452,2140613.0,
5453,2151192.0,
5454,2158495.0,
5455,2159980.0,
5456,2159010.0,
5457,2151620.0,
5458,2139541.0,
5459,2145632.0,
5460,2157919.0,
5461,2164907.0,
5462,2175446.0,
5463,2185900.0,
5464,2195713.0,
5465,2199056.0,
5466,2198003.0,
5467,2195717.0,
5468,2200673.0,
5469,2212002.0,
5470,2220976.0,
5471,2232397.0,
5472,2240613.0,
5473,2248563.0,
5474,2253699.0,
5475,2249374.0,
5476,2246570.0,
5477,2239198.0,
5478,2239272.0,
5479,2237442.0,
5480,2246207.0,
5481,2249511.0,
5482,2239777.0,
5483,2205525.0,
5484,2188700.0,
5485,2164526.0,
5486,2153583.0,
5487,2139601.0,
5488,2140548.0,
5489,2133385.0,
5490,2191612.0,
5491,2289825.0,
5492,2356142.0,
5493,2409072.0,
5494,2445562.0,
5495,2437226.0,
5496,2406104.0,
5497,2341804.0,
5498,2288516.0,
5499,2241583.0,
5500,2210115.0,
5501,2189679.0,
5502,2176509.0,
5503,2159862.0,
5504,2153059.0,
5505,2151077.0,
5506,2150427.0,
5507,2146046.0,
5508,2140160.0,
5509,2134882.0,
5510,2126765.0,
5511,2113021.0,
5512,2103308.0,
5513,2088191.0,
5514,2073760.0,
5515,2063332.0,
5516,2054144.0,
5517,2047118.0,
5518,2038135.0,
5519,2026615.0,
5520,2010692.0,
5521,1996929.0,
5522,1984269.0,
5523,1977905.0,
5524,1973945.0,
5525,1969140.0,
5526,1967539.0,
5527,1974146.0,
5528,1993591.0,
5529,2013997.0,
5530,2031265.0,
5531,2076676.0,
5532,2143975.0,
5533,2187369.0,
5534,2207059.0,
5535,2219458.0,
5536,2220667.0,
5537,2214312.0,
5538,2206775.0,
5539,2197371.0,
5540,2184216.0,
5541,2167125.0,
5542,2154678.0,
5543,2145164.0,
5544,2137701.0,
5545,2133725.0,
5546,2132428.0,
5547,2129517.0,
5548,2124959.0,
5549,2121992.0,
5550,2117193.0,
5551,2109257.0,
5552,2100058.0,
5553,2092717.0,
5554,2087491.0,
5555,2083680.0,
5556,2080773.0,
5557,2079531.0,
5558,2076323.0,
5559,2074722.0,
5560,2072085.0,
5561,2067208.0,
5562,2059982.0,
5563,2054216.0,
5564,2049440.0,
5565,2047534.0,
5566,2046339.0,
5567,2045603.0,
5568,2044728.0,
5569,2044351.0,
5570,2043122.0,
5571,2038790.0,
5572,2033615.0,
5573,2029441.0,
5574,2027075.0,
5575,2025325.0,
5576,2024316.0,
5577,2023855.0,
5578,2023269.0,
5579,2023062.0,
5580,2022600.0,
5581,2019984.0,
5582,2015561.0,
5583,2011533.0,
5584,2009166.0,
5585,2008732.0,
5586,2009239.0,
5587,2009386.0,
5588,2008422.0,
5589,2009000.0,
5590,2008996.0,
5591,2005537.0,
5592,2001123.0,
5593,1996802.0,
5594,1993865.0,
5595,1992773.0,
5596,1992691.0,
5597,1992956.0,
5598,1994480.0,
5599,1994281.0,
5600,1994683.0,
5601,1995109.0,
5602,1991775.0,
5603,1989225.0,
5604,1986511.0,
5605,1985152.0,
5606,1983001.0,
5607,1982408.0,
5608,1981642.0,
5609,1981708.0,
5610,1982185.0,
5611,1975055.0,
5612,1975055.0,
5613,1971542.0,
5614,1968023.0,
5615,1966415.0,
5616,1966422.0,
5617,1966422.0,
5618,1968359.0,
5619,1970586.0,
5620,1975320.0,
5621,2001616.0,
5622,2072785.0,
5623,2213783.0,
5624,2422375.0,
5625,2611847.0,
5626,2727120.0,
5627,2824303.0,
5628,2891630.0,
5629,2951278.0,
5630,3003030.0,
5631,3050559.0,
5632,3084719.0,
5633,3095635.0,
5634,3083721.0,
5635,3056702.0,
5636,3002352.0,
5637,2982646.0,
5638,2964934.0,
5639,2941429.0,
5640,2912953.0,
5641,2878851.0,
5642,2861065.0,
5643,2836267.0,
5644,2814953.0,
5645,2807843.0,
5646,2798909.0,
5647,2793325.0,
5648,2791184.0,
5649,2791083.0,
5650,2791382.0,
5651,2787342.0,
5652,2780147.0,
5653,2775931.0,
5654,2769561.0,
5655,2763870.0,
5656,2758004.0,
5657,2748819.0,
5658,2739049.0,
5659,2727975.0,
5660,2715354.0,
5661,2688240.0,
5662,2678545.0,
5663,2659585.0,
5664,2652465.0,
5665,2640302.0,
5666,2629631.0,
5667,2620713.0,
5668,2620991.0,
5669,2621582.0,
5670,2614729.0,
5671,2610728.0,
5672,2603802.0,
5673,2617289.0,
5674,2648871.0,
5675,2680856.0,
5676,2711774.0,
5677,2728006.0,
5678,2749262.0,
5679,2796785.0,
5680,2800216.0,
5681,2800748.0,
5682,2800123.0,
5683,2811102.0,
5684,2832661.0,
5685,2828812.0,
5686,2853240.0,
5687,2873498.0,
5688,2872692.0,
5689,2852138.0,
5690,2821548.0,
5691,2785870.0,
5692,2754626.0,
5693,2729879.0,
5694,2722623.0,
5695,2713515.0,
5696,2707896.0,
5697,2698290.0,
5698,2687143.0,
5699,2680081.0,
5700,2669709.0,
5701,2652572.0,
5702,2633044.0,
5703,2619815.0,
5704,2610451.0,
5705,2603350.0,
5706,2595566.0,
5707,2589736.0,
5708,2581018.0,
5709,2572434.0,
5710,2557776.0,
5711,2538665.0,
5712,2519230.0,
5713,2507592.0,
5714,2499859.0,
5715,2489829.0,
5716,2481333.0,
5717,2470486.0,
5718,2457214.0,
5719,2449006.0,
5720,2444022.0,
5721,2434959.0,
5722,2428781.0,
5723,2433281.0,
5724,2440806.0,
5725,2438773.0,
5726,2432958.0,
5727,2426328.0,
5728,2428608.0,
5729,2423889.0,
5730,2401578.0,
5731,2376789.0,
5732,2351230.0,
5733,2329184.0,
5734,2322494.0,
5735,2328350.0,
5736,2339039.0,
5737,2354649.0,
5738,2362436.0,
5739,2367862.0,
5740,2371433.0,
5741,2375157.0,
5742,2393764.0,
5743,2415127.0,
5744,2420733.0,
5745,2427057.0,
5746,2450683.0,
5747,2471378.0,
5748,2486900.0,
5749,2503854.0,
5750,2525487.0,
5751,2532523.0,
5752,2534662.0,
5753,2542942.0,
5754,2549560.0,
5755,2552371.0,
5756,2552964.0,
5757,2557051.0,
5758,2559359.0,
5759,2555526.0,
5760,2548596.0,
5761,2551864.0,
5762,2552939.0,
5763,2567280.0,
5764,2564985.0,
5765,2577247.0,
5766,2575860.0,
5767,2580536.0,
5768,2591811.0,
5769,2608048.0,
5770,2578026.0,
5771,2552125.0,
5772,2549399.0,
5773,2545139.0,
5774,2547135.0,
5775,2555864.0,
5776,2563318.0,
5777,2571849.0,
5778,2607685.0,
5779,2634764.0,
5780,2653500.0,
5781,2683732.0,
5782,2714133.0,
5783,2738476.0,
5784,2744621.0,
5785,2741379.0,
5786,2733167.0,
5787,2707947.0,
5788,2698093.0,
5789,2680065.0,
5790,2651910.0,
5791,2630233.0,
5792,2610430.0,
5793,2589834.0,
5794,2575531.0,
5795,2557886.0,
5796,2538998.0,
5797,2519634.0,
5798,2499413.0,
5799,2470657.0,
5800,2436031.0,
5801,2402593.0,
5802,2371667.0,
5803,2346367.0,
5804,2325733.0,
5805,2307255.0,
5806,2289684.0,
5807,2276952.0,
5808,2261093.0,
5809,2238689.0,
5810,2217055.0,
5811,2200019.0,
5812,2188116.0,
5813,2177943.0,
5814,2163118.0,
5815,2151138.0,
5816,2142798.0,
5817,2136189.0,
5818,2125521.0,
5819,2106604.0,
5820,2086931.0,
5821,2069075.0,
5822,2056370.0,
5823,2051711.0,
5824,2048712.0,
5825,2044853.0,
5826,2039928.0,
5827,2036391.0,
5828,2029543.0,
5829,2014446.0,
5830,2002611.0,
5831,1994027.0,
5832,1990210.0,
5833,1989236.0,
5834,1987546.0,
5835,1985936.0,
5836,1987950.0,
5837,1989577.0,
5838,1984859.0,
5839,1975898.0,
5840,1969523.0,
5841,1968815.0,
5842,1973609.0,
5843,1983186.0,
5844,1993320.0,
5845,1996702.0,
5846,1992623.0,
5847,1991271.0,
5848,1987441.0,
5849,1982807.0,
5850,1979305.0,
5851,1978529.0,
5852,1983304.0,
5853,1987299.0,
5854,1991345.0,
5855,1994397.0,
5856,1997181.0,
5857,2000211.0,
5858,1998457.0,
5859,1993186.0,
5860,1989768.0,
5861,1990049.0,
5862,1994602.0,
5863,1998550.0,
5864,2002325.0,
5865,2003672.0,
5866,2006419.0,
5867,2008298.0,
5868,2005648.0,
5869,2000315.0,
5870,1997094.0,
5871,1998829.0,
5872,2003379.0,
5873,2006289.0,
5874,2009602.0,
5875,2012033.0,
5876,2015261.0,
5877,2014674.0,
5878,2009061.0,
5879,2005868.0,
5880,2004817.0,
5881,2006730.0,
5882,2011231.0,
5883,2015260.0,
5884,2018000.0,
5885,2020710.0,
5886,2023465.0,
5887,2022557.0,
5888,2019424.0,
5889,2015630.0,
5890,2016765.0,
5891,2019699.0,
5892,2024079.0,
5893,2026479.0,
5894,2029496.0,
5895,2031946.0,
5896,2034057.0,
5897,2034088.0,
5898,2030785.0,
5899,2028879.0,
5900,2030419.0,
5901,2032575.0,
5902,2036367.0,
5903,2039860.0,
5904,2042600.0,
5905,2045229.0,
5906,2047320.0,
5907,2046571.0,
5908,2045408.0,
5909,2044509.0,
5910,2046796.0,
5911,2049325.0,
5912,2053227.0,
5913,2056496.0,
5914,2059583.0,
5915,2062454.0,
5916,2063700.0,
5917,2062719.0,
5918,2061054.0,
5919,2059788.0,
5920,2062799.0,
5921,2065873.0,
5922,2070244.0,
5923,2072604.0,
5924,2074425.0,
5925,2077263.0,
5926,2078628.0,
5927,2078389.0,
5928,2076599.0,
5929,2078065.0,
5930,2079647.0,
5931,2083037.0,
5932,2086370.0,
5933,2088875.0,
5934,2091286.0,
5935,2093393.0,
5936,2094109.0,
5937,2093074.0,
5938,2092012.0,
5939,2092006.0,
5940,2093547.0,
5941,2096303.0,
5942,2098739.0,
5943,2100857.0,
5944,2102898.0,
5945,2104634.0,
5946,2103492.0,
5947,2101620.0,
5948,2100414.0,
5949,2101379.0,
5950,2103519.0,
5951,2104953.0,
5952,2107052.0,
5953,2108639.0,
5954,2110141.0,
5955,2110661.0,
5956,2107730.0,
5957,2105074.0,
5958,2103884.0,
5959,2103660.0,
5960,2105658.0,
5961,2107570.0,
5962,2109027.0,
5963,2110792.0,
5964,2111478.0,
5965,2109950.0,
5966,2105874.0,
5967,2102504.0,
5968,2101333.0,
5969,2101984.0,
5970,2102493.0,
5971,2103250.0,
5972,2103786.0,
5973,2104269.0,
5974,2104267.0,
5975,2102439.0,
5976,2096608.0,
5977,2093294.0,
5978,2092516.0,
5979,2093407.0,
5980,2095669.0,
5981,2095934.0,
5982,2095962.0,
5983,2094867.0,
5984,2093632.0,
5985,2088198.0,
5986,2082769.0,
5987,2079367.0,
5988,2078517.0,
5989,2079008.0,
5990,2079448.0,
5991,2079049.0,
5992,2077844.0,
5993,2076888.0,
5994,2074289.0,
5995,2068870.0,
5996,2063757.0,
5997,2060988.0,
5998,2060296.0,
5999,2060588.0,
6000,2060711.0,
6001,2060196.0,
6002,2058945.0,
6003,2057501.0,
6004,2054078.0,
6005,2047857.0,
6006,2043747.0,
6007,2040720.0,
6008,2038766.0,
6009,2038931.0,
6010,2038867.0,
6011,2037972.0,
6012,2037904.0,
6013,2036281.0,
6014,2031463.0,
6015,2025419.0,
6016,2020943.0,
6017,2018054.0,
6018,2018090.0,
6019,2018143.0,
6020,2017423.0,
6021,2016362.0,
6022,2015936.0,
6023,2012492.0,
6024,2007425.0,
6025,1999708.0,
6026,1995772.0,
6027,1994613.0,
6028,1994622.0,
6029,1994468.0,
6030,1993306.0,
6031,1993048.0,
6032,1991343.0,
6033,1987241.0,
6034,1980177.0,
6035,1972949.0,
6036,1970209.0,
6037,1971237.0,
6038,1971666.0,
6039,1971036.0,
6040,1969493.0,
6041,1967005.0,
6042,1964926.0,
6043,1959454.0,
6044,1951408.0,
6045,1947032.0,
6046,1945404.0,
6047,1945194.0,
6048,1945173.0,
6049,1944139.0,
6050,1942813.0,
6051,1941552.0,
6052,1938198.0,
6053,1931947.0,
6054,1926739.0,
6055,1923483.0,
6056,1923774.0,
6057,1924057.0,
6058,1923924.0,
6059,1923052.0,
6060,1922900.0,
6061,1921217.0,
6062,1915435.0,
6063,1909220.0,
6064,1905564.0,
6065,1905408.0,
6066,1905865.0,
6067,1906134.0,
6068,1904545.0,
6069,1903655.0,
6070,1902775.0,
6071,1900471.0,
6072,1895207.0,
6073,1890683.0,
6074,1889492.0,
6075,1889465.0,
6076,1890700.0,
6077,1890994.0,
6078,1890521.0,
6079,1889801.0,
6080,1888929.0,
6081,1885337.0,
6082,1879431.0,
6083,1877209.0,
6084,1876638.0,
6085,1876785.0,
6086,1878008.0,
6087,1878247.0,
6088,1877515.0,
6089,1876066.0,
6090,1874574.0,
6091,1870620.0,
6092,1867118.0,
6093,1864819.0,
6094,1864408.0,
6095,1865625.0,
6096,1866578.0,
6097,1865293.0,
6098,1864857.0,
6099,1864173.0,
6100,1861050.0,
6101,1856389.0,
6102,1854009.0,
6103,1853131.0,
6104,1853310.0,
6105,1853345.0,
6106,1853116.0,
6107,1852400.0,
6108,1852120.0,
6109,1850300.0,
6110,1845567.0,
6111,1842033.0,
6112,1839935.0,
6113,1839921.0,
6114,1840599.0,
6115,1840724.0,
6116,1840033.0,
6117,1839156.0,
6118,1837099.0,
6119,1833271.0,
6120,1828162.0,
6121,1825381.0,
6122,1823544.0,
6123,1823938.0,
6124,1825451.0,
6125,1824057.0,
6126,1823371.0,
6127,1822775.0,
6128,1820810.0,
6129,1817039.0,
6130,1812231.0,
6131,1809813.0,
6132,1809639.0,
6133,1808846.0,
6134,1809091.0,
6135,1808514.0,
6136,1807836.0,
6137,1807388.0,
6138,1804857.0,
6139,1801009.0,
6140,1796689.0,
6141,1795696.0,
6142,1796777.0,
6143,1797896.0,
6144,1799204.0,
6145,1797940.0,
6146,1798869.0,
6147,1798649.0,
6148,1794938.0,
6149,1790856.0,
6150,1788459.0,
6151,1788270.0,
6152,1789218.0,
6153,1790202.0,
6154,1790612.0,
6155,1790424.0,
6156,1790545.0,
6157,1790342.0,
6158,1787936.0,
6159,1784818.0,
6160,1783333.0,
6161,1783519.0,
6162,1784851.0,
6163,1785964.0,
6164,1786321.0,
6165,1786399.0,
6166,1786712.0,
6167,1786307.0,
6168,1783567.0,
6169,1781633.0,
6170,1780454.0,
6171,1780844.0,
6172,1781294.0,
6173,1782853.0,
6174,1783022.0,
6175,1782022.0,
6176,1782227.0,
6177,1781225.0,
6178,1777974.0,
6179,1775023.0,
6180,1774397.0,
6181,1775095.0,
6182,1776951.0,
6183,1777166.0,
6184,1777387.0,
6185,1777689.0,
6186,1778045.0,
6187,1775934.0,
6188,1773867.0,
6189,1771066.0,
6190,1770945.0,
6191,1772042.0,
6192,1773181.0,
6193,1774804.0,
6194,1774230.0,
6195,1775153.0,
6196,1774202.0,
6197,1772015.0,
6198,1768993.0,
6199,1767398.0,
6200,1767431.0,
6201,1768636.0,
6202,1770024.0,
6203,1770788.0,
6204,1771522.0,
6205,1771860.0,
6206,1770831.0,
6207,1768647.0,
6208,1765586.0,
6209,1764093.0,
6210,1764412.0,
6211,1765605.0,
6212,1766489.0,
6213,1767118.0,
6214,1767226.0,
6215,1767332.0,
6216,1766895.0,
6217,1764921.0,
6218,1762362.0,
6219,1761001.0,
6220,1761609.0,
6221,1762426.0,
6222,1763458.0,
6223,1763606.0,
6224,1763668.0,
6225,1764054.0,
6226,1763820.0,
6227,1761757.0,
6228,1760269.0,
6229,1758095.0,
6230,1758271.0,
6231,1759393.0,
6232,1759752.0,
6233,1760147.0,
6234,1760195.0,
6235,1760252.0,
6236,1758919.0,
6237,1755782.0,
6238,1753189.0,
6239,1752024.0,
6240,1752303.0,
6241,1752864.0,
6242,1753364.0,
6243,1753148.0,
6244,1752780.0,
6245,1751849.0,
6246,1749111.0,
6247,1745337.0,
6248,1742518.0,
6249,1741373.0,
6250,1741701.0,
6251,1742510.0,
6252,1742118.0,
6253,1740948.0,
6254,1740472.0,
6255,1738390.0,
6256,1733943.0,
6257,1728755.0,
6258,1726844.0,
6259,1725726.0,
6260,1724750.0,
6261,1724233.0,
6262,1723091.0,
6263,1721768.0,
6264,1720221.0,
6265,1716932.0,
6266,1712009.0,
6267,1709139.0,
6268,1705987.0,
6269,1705441.0,
6270,1705158.0,
6271,1705559.0,
6272,1704056.0,
6273,1701593.0,
6274,1700047.0,
6275,1695556.0,
6276,1691263.0,
6277,1686563.0,
6278,1684939.0,
6279,1685234.0,
6280,1685543.0,
6281,1683394.0,
6282,1681657.0,
6283,1680494.0,
6284,1679470.0,
6285,1674016.0,
6286,1669367.0,
6287,1664688.0,
6288,1662689.0,
6289,1662226.0,
6290,1662447.0,
6291,1658683.0,
6292,1656757.0,
6293,1653412.0,
6294,1648824.0,
6295,1641248.0,
6296,1625012.0,
6297,1609742.0,
6298,1594819.0,
6299,1585465.0,
6300,1573787.0,
6301,1600427.0,
6302,1698833.0,
6303,1789268.0,
6304,1876854.0,
6305,1945986.0,
6306,2005939.0,
6307,2064839.0,
6308,2094355.0,
6309,2143905.0,
6310,2167397.0,
6311,2183285.0,
6312,2230051.0,
6313,2285851.0,
6314,2320990.0,
6315,2342287.0,
6316,2389575.0,
6317,2473307.0,
6318,2557324.0,
6319,2610251.0,
6320,2672746.0,
6321,2651177.0,
6322,2596855.0,
6323,2580195.0,
6324,2579143.0,
6325,2587099.0,
6326,2595177.0,
6327,2605023.0,
6328,2624603.0,
6329,2637642.0,
6330,2632693.0,
6331,2623815.0,
6332,2607511.0,
6333,2591400.0,
6334,2571882.0,
6335,2554309.0,
6336,2551879.0,
6337,2557301.0,
6338,2559674.0,
6339,2549903.0,
6340,2551269.0,
6341,2554082.0,
6342,2551231.0,
6343,2552433.0,
6344,2554560.0,
6345,2554928.0,
6346,2559911.0,
6347,2567926.0,
6348,2584647.0,
6349,2609271.0,
6350,2636923.0,
6351,2661711.0,
6352,2679323.0,
6353,2700904.0,
6354,2725293.0,
6355,2746532.0,
6356,2773719.0,
6357,2806150.0,
6358,2827700.0,
6359,2837226.0,
6360,2857480.0,
6361,2867264.0,
6362,2879479.0,
6363,2891062.0,
6364,2882539.0,
6365,2857023.0,
6366,2826410.0,
6367,2802789.0,
6368,2794049.0,
6369,2786452.0,
6370,2778089.0,
6371,2768095.0,
6372,2762444.0,
6373,2772629.0,
6374,2774542.0,
6375,2772347.0,
6376,2761751.0,
6377,2750377.0,
6378,2731912.0,
6379,2713440.0,
6380,2699442.0,
6381,2693111.0,
6382,2692723.0,
6383,2695263.0,
6384,2689343.0,
6385,2684987.0,
6386,2664746.0,
6387,2637302.0,
6388,2623629.0,
6389,2606511.0,
6390,2597787.0,
6391,2608728.0,
6392,2635546.0,
6393,2665719.0,
6394,2677230.0,
6395,2660801.0,
6396,2621836.0,
6397,2621427.0,
6398,2604822.0,
6399,2612577.0,
6400,2626826.0,
6401,2633083.0,
6402,2630791.0,
6403,2626583.0,
6404,2623613.0,
6405,2593175.0,
6406,2567795.0,
6407,2548486.0,
6408,2532168.0,
6409,2520533.0,
6410,2507911.0,
6411,2495129.0,
6412,2483634.0,
6413,2472959.0,
6414,2461131.0,
6415,2444076.0,
6416,2424696.0,
6417,2408008.0,
6418,2395604.0,
6419,2388056.0,
6420,2380620.0,
6421,2371603.0,
6422,2363218.0,
6423,2352828.0,
6424,2344694.0,
6425,2329929.0,
6426,2312104.0,
6427,2295696.0,
6428,2284210.0,
6429,2277908.0,
6430,2272623.0,
6431,2265776.0,
6432,2258202.0,
6433,2251063.0,
6434,2245669.0,
6435,2232757.0,
6436,2215123.0,
6437,2200451.0,
6438,2190831.0,
6439,2186635.0,
6440,2183469.0,
6441,2179248.0,
6442,2174243.0,
6443,2167410.0,
6444,2163408.0,
6445,2150932.0,
6446,2135314.0,
6447,2123863.0,
6448,2115849.0,
6449,2114880.0,
6450,2112135.0,
6451,2109304.0,
6452,2105022.0,
6453,2101189.0,
6454,2098613.0,
6455,2090272.0,
6456,2077960.0,
6457,2066788.0,
6458,2062905.0,
6459,2062338.0,
6460,2062654.0,
6461,2060605.0,
6462,2058346.0,
6463,2056375.0,
6464,2055492.0,
6465,2051435.0,
6466,2042684.0,
6467,2032994.0,
6468,2029829.0,
6469,2030155.0,
6470,2032266.0,
6471,2033268.0,
6472,2032950.0,
6473,2032905.0,
6474,2033847.0,
6475,2033330.0,
6476,2026134.0,
6477,2019301.0,
6478,2015357.0,
6479,2014818.0,
6480,2018583.0,
6481,2020699.0,
6482,2020967.0,
6483,2021674.0,
6484,2022377.0,
6485,2023426.0,
6486,2019687.0,
6487,2011943.0,
6488,2008971.0,
6489,2007908.0,
6490,2010530.0,
6491,2013462.0,
6492,2015073.0,
6493,2015457.0,
6494,2015910.0,
6495,2017014.0,
6496,2013599.0,
6497,2006577.0,
6498,2002464.0,
6499,2001089.0,
6500,2004111.0,
6501,2007266.0,
6502,2008595.0,
6503,2008927.0,
6504,2009553.0,
6505,2010846.0,
6506,2007480.0,
6507,2000252.0,
6508,1995211.0,
6509,1994629.0,
6510,1996977.0,
6511,1999812.0,
6512,2001632.0,
6513,2001622.0,
6514,2002093.0,
6515,2003111.0,
6516,1999958.0,
6517,1993399.0,
6518,1989200.0,
6519,1988103.0,
6520,1990947.0,
6521,1995098.0,
6522,1996843.0,
6523,1997041.0,
6524,1996407.0,
6525,1997869.0,
6526,1995895.0,
6527,1990059.0,
6528,1985660.0,
6529,1985700.0,
6530,1988622.0,
6531,1991317.0,
6532,1994010.0,
6533,1994530.0,
6534,1995627.0,
6535,1997256.0,
6536,1996968.0,
6537,1992083.0,
6538,1985993.0,
6539,1984637.0,
6540,1986701.0,
6541,1989471.0,
6542,1991499.0,
6543,1993180.0,
6544,1993934.0,
6545,1994366.0,
6546,1995468.0,
6547,1991563.0,
6548,1987348.0,
6549,1983999.0,
6550,1985731.0,
6551,1989057.0,
6552,1990370.0,
6553,1990725.0,
6554,1990969.0,
6555,1993010.0,
6556,1994465.0,
6557,1991120.0,
6558,1980315.0,
6559,1967801.0,
6560,1960677.0,
6561,1958287.0,
6562,1957672.0,
6563,1957863.0,
6564,1953155.0,
6565,1945732.0,
6566,1943010.0,
6567,1935760.0,
6568,1933433.0,
6569,1934967.0,
6570,1942341.0,
6571,1950504.0,
6572,1959288.0,
6573,1963076.0,
6574,1963667.0,
6575,1964344.0,
6576,1964969.0,
6577,1958468.0,
6578,1950714.0,
6579,1943939.0,
6580,1939906.0,
6581,1939453.0,
6582,1940515.0,
6583,1939637.0,
6584,1937616.0,
6585,1934378.0,
6586,1933015.0,
6587,1928213.0,
6588,1919056.0,
6589,1913331.0,
6590,1913851.0,
6591,1917344.0,
6592,1917226.0,
6593,1915771.0,
6594,1909197.0,
6595,1900619.0,
6596,1893313.0,
6597,1886467.0,
6598,1876066.0,
6599,1864709.0,
6600,1861702.0,
6601,1861750.0,
6602,1862949.0,
6603,1860254.0,
6604,1856837.0,
6605,1852842.0,
6606,1848370.0,
6607,1843919.0,
6608,1834796.0,
6609,1827301.0,
6610,1826452.0,
6611,1830893.0,
6612,1836880.0,
6613,1840229.0,
6614,1841565.0,
6615,1843139.0,
6616,1844219.0,
6617,1843086.0,
6618,1836174.0,
6619,1830475.0,
6620,1828220.0,
6621,1828446.0,
6622,1830159.0,
6623,1831251.0,
6624,1831681.0,
6625,1831243.0,
6626,1831728.0,
6627,1829462.0,
6628,1822442.0,
6629,1815089.0,
6630,1810154.0,
6631,1810921.0,
6632,1812285.0,
6633,1814312.0,
6634,1814108.0,
6635,1813703.0,
6636,1813655.0,
6637,1814816.0,
6638,1812662.0,
6639,1805027.0,
6640,1797056.0,
6641,1794275.0,
6642,1797122.0,
6643,1797797.0,
6644,1798412.0,
6645,1799663.0,
6646,1794253.0,
6647,1794253.0,
6648,1786786.0,
6649,1774281.0,
6650,1748468.0,
6651,1739821.0,
6652,1734658.0,
6653,1732235.0,
6654,1730052.0,
6655,1726305.0,
6656,1722672.0,
6657,1721809.0,
6658,1721248.0,
6659,1716218.0,
6660,1708131.0,
6661,1699766.0,
6662,1696105.0,
6663,1695247.0,
6664,1695697.0,
6665,1694711.0,
6666,1692955.0,
6667,1692504.0,
6668,1692731.0,
6669,1692897.0,
6670,1691028.0,
6671,1687147.0,
6672,1684371.0,
6673,1684889.0,
6674,1687756.0,
6675,1691619.0,
6676,1696538.0,
6677,1699026.0,
6678,1701964.0,
6679,1704201.0,
6680,1706344.0,
6681,1703205.0,
6682,1697504.0,
6683,1694376.0,
6684,1695160.0,
6685,1697087.0,
6686,1699458.0,
6687,1701119.0,
6688,1701610.0,
6689,1701442.0,
6690,1701648.0,
6691,1703385.0,
6692,1702218.0,
6693,1697806.0,
6694,1692344.0,
6695,1690055.0,
6696,1692143.0,
6697,1694094.0,
6698,1694649.0,
6699,1694718.0,
6700,1695319.0,
6701,1693123.0,
6702,1691071.0,
6703,1689444.0,
6704,1682540.0,
6705,1674516.0,
6706,1669125.0,
6707,1665580.0,
6708,1662214.0,
6709,1660828.0,
6710,1656922.0,
6711,1652182.0,
6712,1649290.0,
6713,1645466.0,
6714,1641590.0,
6715,1635095.0,
6716,1629628.0,
6717,1627207.0,
6718,1627601.0,
6719,1627473.0,
6720,1626876.0,
6721,1626121.0,
6722,1627596.0,
6723,1629442.0,
6724,1629580.0,
6725,1629754.0,
6726,1626990.0,
6727,1625727.0,
6728,1628200.0,
6729,1632447.0,
6730,1635072.0,
6731,1636420.0,
6732,1635728.0,
6733,1636470.0,
6734,1638282.0,
6735,1637562.0,
6736,1634887.0,
6737,1631076.0,
6738,1629851.0,
6739,1630882.0,
6740,1633110.0,
6741,1635041.0,
6742,1635215.0,
6743,1635922.0,
6744,1636364.0,
6745,1636895.0,
6746,1633731.0,
6747,1629826.0,
6748,1627242.0,
6749,1626951.0,
6750,1627372.0,
6751,1628520.0,
6752,1629574.0,
6753,1631159.0,
6754,1630250.0,
6755,1629588.0,
6756,1629198.0,
6757,1627089.0,
6758,1625386.0,
6759,1622632.0,
6760,1620985.0,
6761,1619377.0,
6762,1616250.0,
6763,1609548.0,
6764,1600797.0,
6765,1593235.0,
6766,1586179.0,
6767,1578508.0,
6768,1570573.0,
6769,1564761.0,
6770,1562357.0,
6771,1560506.0,
6772,1559769.0,
6773,1558121.0,
6774,1556782.0,
6775,1555558.0,
6776,1554293.0,
6777,1552338.0,
6778,1547493.0,
6779,1540759.0,
6780,1534097.0,
6781,1530077.0,
6782,1529686.0,
6783,1532072.0,
6784,1536430.0,
6785,1539813.0,
6786,1544576.0,
6787,1551008.0,
6788,1550622.0,
6789,1545452.0,
6790,1540521.0,
6791,1538063.0,
6792,1537298.0,
6793,1537907.0,
6794,1538676.0,
6795,1538325.0,
6796,1536953.0,
6797,1535680.0,
6798,1534150.0,
6799,1531031.0,
6800,1525057.0,
6801,1522682.0,
6802,1522322.0,
6803,1523681.0,
6804,1524843.0,
6805,1527189.0,
6806,1529029.0,
6807,1530782.0,
6808,1531887.0,
6809,1529031.0,
6810,1523014.0,
6811,1517494.0,
6812,1516140.0,
6813,1518816.0,
6814,1520517.0,
6815,1522300.0,
6816,1520230.0,
6817,1512463.0,
6818,1505146.0,
6819,1497935.0,
6820,1489689.0,
6821,1481403.0,
6822,1473749.0,
6823,1470810.0,
6824,1469942.0,
6825,1469377.0,
6826,1468277.0,
6827,1465363.0,
6828,1463295.0,
6829,1462207.0,
6830,1457751.0,
6831,1451279.0,
6832,1445121.0,
6833,1441035.0,
6834,1437986.0,
6835,1434870.0,
6836,1432188.0,
6837,1429635.0,
6838,1430643.0,
6839,1432198.0,
6840,1433986.0,
6841,1433949.0,
6842,1430792.0,
6843,1427194.0,
6844,1429181.0,
6845,1429845.0,
6846,1429899.0,
6847,1429897.0,
6848,1428934.0,
6849,1428595.0,
6850,1428132.0,
6851,1427954.0,
6852,1427463.0,
6853,1426196.0,
6854,1424481.0,
6855,1424058.0,
6856,1425550.0,
6857,1426586.0,
6858,1427876.0,
6859,1429461.0,
6860,1431327.0,
6861,1431806.0,
6862,1432393.0,
6863,1432135.0,
6864,1431431.0,
6865,1429048.0,
6866,1430412.0,
6867,1432423.0,
6868,1434846.0,
6869,1434858.0,
6870,1433727.0,
6871,1433518.0,
6872,1433754.0,
6873,1435231.0,
6874,1431739.0,
6875,1425968.0,
6876,1421819.0,
6877,1419642.0,
6878,1419664.0,
6879,1417938.0,
6880,1415510.0,
6881,1414242.0,
6882,1413066.0,
6883,1409272.0,
6884,1401895.0,
6885,1393644.0,
6886,1385022.0,
6887,1379632.0,
6888,1374586.0,
6889,1371843.0,
6890,1371512.0,
6891,1371579.0,
6892,1371578.0,
6893,1371357.0,
6894,1373487.0,
6895,1374451.0,
6896,1375669.0,
6897,1377438.0,
6898,1378368.0,
6899,1379626.0,
6900,1378835.0,
6901,1375287.0,
6902,1372827.0,
6903,1371309.0,
6904,1370518.0,
6905,1367399.0,
6906,1363513.0,
6907,1361201.0,
6908,1361570.0,
6909,1361027.0,
6910,1361462.0,
6911,1361783.0,
6912,1362266.0,
6913,1363692.0,
6914,1364603.0,
6915,1366732.0,
6916,1365965.0,
6917,1365708.0,
6918,1365236.0,
6919,1366157.0,
6920,1368626.0,
6921,1368838.0,
6922,1368282.0,
6923,1367844.0,
6924,1367296.0,
6925,1369644.0,
6926,1367883.0,
6927,1365658.0,
6928,1364104.0,
6929,1365291.0,
6930,1370893.0,
6931,1372455.0,
6932,1368753.0,
6933,1364848.0,
6934,1363633.0,
6935,1362120.0,
6936,1359970.0,
6937,1359009.0,
6938,1363456.0,
6939,1369789.0,
6940,1376811.0,
6941,1382726.0,
6942,1390206.0,
6943,1397489.0,
6944,1403328.0,
6945,1406880.0,
6946,1408852.0,
6947,1408441.0,
6948,1403774.0,
6949,1408889.0,
6950,1416032.0,
6951,1428943.0,
6952,1452445.0,
6953,1473689.0,
6954,1473947.0,
6955,1461615.0,
6956,1453101.0,
6957,1446599.0,
6958,1438430.0,
6959,1429728.0,
6960,1422766.0,
6961,1417470.0,
6962,1413794.0,
6963,1411377.0,
6964,1409451.0,
6965,1408098.0,
6966,1406289.0,
6967,1405580.0,
6968,1403742.0,
6969,1401706.0,
6970,1398301.0,
6971,1395266.0,
6972,1394790.0,
6973,1394287.0,
6974,1393974.0,
6975,1393503.0,
6976,1392558.0,
6977,1391276.0,
6978,1389728.0,
6979,1387280.0,
6980,1383954.0,
6981,1381567.0,
6982,1379166.0,
6983,1377724.0,
6984,1374756.0,
6985,1370260.0,
6986,1367026.0,
6987,1360849.0,
6988,1355177.0,
6989,1351684.0,
6990,1349505.0,
6991,1345644.0,
6992,1340356.0,
6993,1338752.0,
6994,1339551.0,
6995,1337372.0,
6996,1335477.0,
6997,1332428.0,
6998,1329935.0,
6999,1329332.0,
7000,1335590.0,
7001,1335552.0,
7002,1338221.0,
7003,1340667.0,
7004,1348900.0,
7005,1361588.0,
7006,1373225.0,
7007,1381380.0,
7008,1383605.0,
7009,1380212.0,
7010,1375116.0,
7011,1373150.0,
7012,1372282.0,
7013,1368279.0,
7014,1363187.0,
7015,1357349.0,
7016,1356851.0,
7017,1358301.0,
7018,1365605.0,
7019,1377669.0,
7020,1401127.0,
7021,1407688.0,
7022,1404017.0,
7023,1412383.0,
7024,1410688.0,
7025,1406058.0,
7026,1404849.0,
7027,1407325.0,
7028,1408593.0,
7029,1408568.0,
7030,1408353.0,
7031,1409258.0,
7032,1411167.0,
7033,1411368.0,
7034,1409199.0,
7035,1403355.0,
7036,1397169.0,
7037,1392969.0,
7038,1392621.0,
7039,1397801.0,
7040,1397733.0,
7041,1393564.0,
7042,1391866.0,
7043,1392229.0,
7044,1390743.0,
7045,1392718.0,
7046,1389924.0,
7047,1386405.0,
7048,1384183.0,
7049,1384670.0,
7050,1386068.0,
7051,1386409.0,
7052,1386023.0,
7053,1383863.0,
7054,1381711.0,
7055,1380913.0,
7056,1381381.0,
7057,1378952.0,
7058,1373850.0,
7059,1373437.0,
7060,1375489.0,
7061,1377866.0,
7062,1379076.0,
7063,1379145.0,
7064,1377596.0,
7065,1377739.0,
7066,1377114.0,
7067,1375828.0,
7068,1370127.0,
7069,1365275.0,
7070,1361516.0,
7071,1360889.0,
7072,1361033.0,
7073,1360934.0,
7074,1361170.0,
7075,1361943.0,
7076,1363651.0,
7077,1364619.0,
7078,1365418.0,
7079,1363618.0,
7080,1360035.0,
7081,1357569.0,
7082,1356633.0,
7083,1356877.0,
7084,1357260.0,
7085,1356570.0,
7086,1356244.0,
7087,1355931.0,
7088,1355654.0,
7089,1355817.0,
7090,1353981.0,
7091,1351368.0,
7092,1348885.0,
7093,1348338.0,
7094,1348687.0,
7095,1348878.0,
7096,1349782.0,
7097,1349073.0,
7098,1349626.0,
7099,1348695.0,
7100,1348694.0,
7101,1349139.0,
7102,1345589.0,
7103,1343017.0,
7104,1341464.0,
7105,1341427.0,
7106,1340802.0,
7107,1341220.0,
7108,1341162.0,
7109,1340441.0,
7110,1339864.0,
7111,1340362.0,
7112,1338689.0,
7113,1337635.0,
7114,1334477.0,
7115,1332346.0,
7116,1332309.0,
7117,1331896.0,
7118,1331396.0,
7119,1331058.0,
7120,1330518.0,
7121,1330688.0,
7122,1329760.0,
7123,1328162.0,
7124,1326243.0,
7125,1324133.0,
7126,1321047.0,
7127,1320666.0,
7128,1320008.0,
7129,1319661.0,
7130,1319307.0,
7131,1318885.0,
7132,1319067.0,
7133,1317859.0,
7134,1316763.0,
7135,1315019.0,
7136,1312880.0,
7137,1310651.0,
7138,1309472.0,
7139,1309385.0,
7140,1310031.0,
7141,1310619.0,
7142,1310292.0,
7143,1309868.0,
7144,1309068.0,
7145,1308452.0,
7146,1306051.0,
7147,1304001.0,
7148,1302957.0,
7149,1302014.0,
7150,1301842.0,
7151,1301574.0,
7152,1301644.0,
7153,1301854.0,
7154,1301831.0,
7155,1301671.0,
7156,1302107.0,
7157,1300856.0,
7158,1298475.0,
7159,1298085.0,
7160,1297073.0,
7161,1297844.0,
7162,1299100.0,
7163,1300842.0,
7164,1300396.0,
7165,1299723.0,
7166,1299336.0,
7167,1298890.0,
7168,1297081.0,
7169,1295644.0,
7170,1295569.0,
7171,1294680.0,
7172,1293845.0,
7173,1294069.0,
7174,1294263.0,
7175,1294528.0,
7176,1294324.0,
7177,1293012.0,
7178,1292309.0,
7179,1292023.0,
7180,1289996.0,
7181,1288306.0,
7182,1288352.0,
7183,1288617.0,
7184,1288974.0,
7185,1288599.0,
7186,1288534.0,
7187,1286999.0,
7188,1286557.0,
7189,1284353.0,
7190,1281195.0,
7191,1279541.0,
7192,1279151.0,
7193,1280037.0,
7194,1279368.0,
7195,1279282.0,
7196,1278513.0,
7197,1277911.0,
7198,1277715.0,
7199,1275172.0,
7200,1273196.0,
7201,1270960.0,
7202,1270832.0,
7203,1270245.0,
7204,1270285.0,
7205,1271047.0,
7206,1271322.0,
7207,1271052.0,
7208,1270727.0,
7209,1270281.0,
7210,1269469.0,
7211,1267246.0,
7212,1264990.0,
7213,1264888.0,
7214,1265305.0,
7215,1266206.0,
7216,1265986.0,
7217,1265591.0,
7218,1265338.0,
7219,1265500.0,
7220,1264575.0,
7221,1262570.0,
7222,1260293.0,
7223,1258991.0,
7224,1259283.0,
7225,1258974.0,
7226,1260382.0,
7227,1260412.0,
7228,1260132.0,
7229,1259929.0,
7230,1258788.0,
7231,1257309.0,
7232,1255152.0,
7233,1253977.0,
7234,1252295.0,
7235,1253020.0,
7236,1255066.0,
7237,1255636.0,
7238,1254816.0,
7239,1254684.0,
7240,1254303.0,
7241,1254829.0,
7242,1252694.0,
7243,1250914.0,
7244,1249765.0,
7245,1250076.0,
7246,1251803.0,
7247,1252340.0,
7248,1253495.0,
7249,1253018.0,
7250,1252130.0,
7251,1251758.0,
7252,1251428.0,
7253,1249273.0,
7254,1247448.0,
7255,1246514.0,
7256,1246577.0,
7257,1247925.0,
7258,1248857.0,
7259,1249124.0,
7260,1248885.0,
7261,1248849.0,
7262,1249085.0,
7263,1246883.0,
7264,1244562.0,
7265,1242553.0,
7266,1244035.0,
7267,1244732.0,
7268,1246873.0,
7269,1246766.0,
7270,1246748.0,
7271,1246862.0,
7272,1247739.0,
7273,1245661.0,
7274,1244005.0,
7275,1242103.0,
7276,1241600.0,
7277,1241464.0,
7278,1243222.0,
7279,1242913.0,
7280,1243381.0,
7281,1243340.0,
7282,1243796.0,
7283,1242851.0,
7284,1241341.0,
7285,1239796.0,
7286,1237402.0,
7287,1237003.0,
7288,1238076.0,
7289,1239875.0,
7290,1241424.0,
7291,1243136.0,
7292,1244232.0,
7293,1244067.0,
7294,1244776.0,
7295,1245383.0,
7296,1243439.0,
7297,1242507.0,
7298,1242978.0,
7299,1244578.0,
7300,1247043.0,
7301,1246881.0,
7302,1246759.0,
7303,1246866.0,
7304,1247927.0,
7305,1247592.0,
7306,1246058.0,
7307,1244149.0,
7308,1243578.0,
7309,1243605.0,
7310,1245084.0,
7311,1246341.0,
7312,1246772.0,
7313,1246293.0,
7314,1246215.0,
7315,1246390.0,
7316,1246470.0,
7317,1244467.0,
7318,1242359.0,
7319,1241209.0,
7320,1241024.0,
7321,1242275.0,
7322,1243552.0,
7323,1243762.0,
7324,1243924.0,
7325,1244229.0,
7326,1244778.0,
7327,1244418.0,
7328,1241799.0,
7329,1239604.0,
7330,1239270.0,
7331,1240524.0,
7332,1242364.0,
7333,1244310.0,
7334,1245000.0,
7335,1245258.0,
7336,1244904.0,
7337,1245299.0,
7338,1244005.0,
7339,1241283.0,
7340,1240286.0,
7341,1239944.0,
7342,1241149.0,
7343,1242170.0,
7344,1243559.0,
7345,1244059.0,
7346,1244165.0,
7347,1245026.0,
7348,1245118.0,
7349,1243662.0,
7350,1240571.0,
7351,1239216.0,
7352,1239208.0,
7353,1241163.0,
7354,1242443.0,
7355,1243771.0,
7356,1243767.0,
7357,1243332.0,
7358,1243255.0,
7359,1243500.0,
7360,1242100.0,
7361,1240201.0,
7362,1238544.0,
7363,1237922.0,
7364,1239423.0,
7365,1240245.0,
7366,1241405.0,
7367,1242265.0,
7368,1242101.0,
7369,1242361.0,
7370,1242797.0,
7371,1242643.0,
7372,1240832.0,
7373,1239246.0,
7374,1238048.0,
7375,1238308.0,
7376,1239087.0,
7377,1241024.0,
7378,1241566.0,
7379,1241653.0,
7380,1241548.0,
7381,1241998.0,
7382,1241000.0,
7383,1239400.0,
7384,1237418.0,
7385,1236015.0,
7386,1237024.0,
7387,1238155.0,
7388,1239600.0,
7389,1239190.0,
7390,1240217.0,
7391,1239706.0,
7392,1240085.0,
7393,1239699.0,
7394,1238182.0,
7395,1236205.0,
7396,1235548.0,
7397,1236082.0,
7398,1237763.0,
7399,1239220.0,
7400,1239442.0,
7401,1240372.0,
7402,1240590.0,
7403,1240857.0,
7404,1240317.0,
7405,1237535.0,
7406,1235408.0,
7407,1234463.0,
7408,1235209.0,
7409,1236465.0,
7410,1237999.0,
7411,1238984.0,
7412,1240146.0,
7413,1240098.0,
7414,1240620.0,
7415,1239205.0,
7416,1237573.0,
7417,1235634.0,
7418,1234938.0,
7419,1235601.0,
7420,1236997.0,
7421,1238162.0,
7422,1238302.0,
7423,1238064.0,
7424,1238787.0,
7425,1238871.0,
7426,1239175.0,
7427,1237093.0,
7428,1234747.0,
7429,1233252.0,
7430,1233809.0,
7431,1235384.0,
7432,1236616.0,
7433,1237025.0,
7434,1237110.0,
7435,1237173.0,
7436,1237490.0,
7437,1236929.0,
7438,1235149.0,
7439,1233352.0,
7440,1232447.0,
7441,1233358.0,
7442,1234601.0,
7443,1236121.0,
7444,1236124.0,
7445,1235842.0,
7446,1235145.0,
7447,1236016.0,
7448,1234733.0,
7449,1233031.0,
7450,1230088.0,
7451,1229970.0,
7452,1230665.0,
7453,1232150.0,
7454,1232029.0,
7455,1231858.0,
7456,1231749.0,
7457,1231838.0,
7458,1231934.0,
7459,1230484.0,
7460,1228066.0,
7461,1227061.0,
7462,1226622.0,
7463,1227231.0,
7464,1229004.0,
7465,1229501.0,
7466,1229557.0,
7467,1229722.0,
7468,1230140.0,
7469,1230035.0,
7470,1228859.0,
7471,1226035.0,
7472,1224000.0,
7473,1223935.0,
7474,1224600.0,
7475,1225973.0,
7476,1226734.0,
7477,1226649.0,
7478,1226450.0,
7479,1226804.0,
7480,1226701.0,
7481,1225433.0,
7482,1222508.0,
7483,1220375.0,
7484,1220536.0,
7485,1222231.0,
7486,1223764.0,
7487,1224141.0,
7488,1224203.0,
7489,1224339.0,
7490,1225678.0,
7491,1225487.0,
7492,1223170.0,
7493,1220787.0,
7494,1219209.0,
7495,1219431.0,
7496,1221027.0,
7497,1222897.0,
7498,1223996.0,
7499,1224841.0,
7500,1224925.0,
7501,1224040.0,
7502,1224006.0,
7503,1222760.0,
7504,1220096.0,
7505,1218799.0,
7506,1219310.0,
7507,1219897.0,
7508,1221719.0,
7509,1222651.0,
7510,1223067.0,
7511,1224078.0,
7512,1223576.0,
7513,1224409.0,
7514,1224390.0,
7515,1223244.0,
7516,1220964.0,
7517,1219395.0,
7518,1220337.0,
7519,1222185.0,
7520,1223548.0,
7521,1224845.0,
7522,1224645.0,
7523,1223908.0,
7524,1224787.0,
7525,1224565.0,
7526,1222965.0,
7527,1221715.0,
7528,1221308.0,
7529,1221740.0,
7530,1223758.0,
7531,1225731.0,
7532,1226786.0,
7533,1227270.0,
7534,1228248.0,
7535,1229714.0,
7536,1229524.0,
7537,1227599.0,
7538,1225564.0,
7539,1224056.0,
7540,1225452.0,
7541,1227694.0,
7542,1229274.0,
7543,1230066.0,
7544,1230588.0,
7545,1232040.0,
7546,1231859.0,
7547,1231501.0,
7548,1229422.0,
7549,1227790.0,
7550,1227952.0,
7551,1229506.0,
7552,1231536.0,
7553,1233238.0,
7554,1233559.0,
7555,1234185.0,
7556,1234478.0,
7557,1234935.0,
7558,1234169.0,
7559,1232016.0,
7560,1230729.0,
7561,1230915.0,
7562,1232321.0,
7563,1234875.0,
7564,1236603.0,
7565,1235813.0,
7566,1235435.0,
7567,1235490.0,
