value
-0.0
-0.0
-0.0
-0.0
-0.0
-0.0
-0.0
-0.0
-0.0
-0.0
0.0
0.01
0.01
-0.0
-0.03
-0.05
-0.05
0.0
0.13
0.36
0.66
1.01
1.37
1.72
2.06
2.4
2.79
3.24
3.8
4.43
5.09
5.71
6.28
6.81
7.36
8.0
8.78
9.81
11.0
12.25
13.43
14.49
15.48
16.57
17.96
19.8
22.31
25.31
28.52
31.64
34.52
37.24
40.11
43.6
48.0
53.73
60.43
67.59
74.63
81.2
87.38
93.7
100.86
109.42
119.93
131.9
144.53
156.93
168.55
179.44
190.27
202.41
214.59
229.09
246.52
266.99
289.26
310.43
326.18
331.92
324.32
302.52
268.94
227.41
182.25
136.65
92.12
48.9
6.84
-33.83
-72.38
-107.6
-138.88
-166.02
-189.39
-209.27
-225.58
-237.86
-245.45
-248.05
-245.72
-239.37
-230.26
-219.74
-208.85
-198.09
-187.53
-176.52
-164.59
-151.49
-137.52
-123.27
-109.46
-96.67
-85.25
-75.24
-66.49
-58.93
-52.49
-47.24
-43.31
-40.81
-39.71
-39.83
-40.84
-42.33
-43.98
-45.48
-46.65
-47.34
-47.49
-47.0
-45.79
-43.82
-41.04
-37.48
-33.18
-28.25
-22.8
-16.95
-10.84
-4.58
1.69
7.83
13.65
18.97
23.58
27.28
29.92
31.35
31.49
30.29
27.78
24.06
19.26
13.57
7.24
0.54
-6.25
-12.8
-18.8
-23.89
-27.79
-30.24
-31.02
-30.03
-27.24
-22.8
-16.93
-10.0
-2.47
5.13
12.29
18.5
23.35
26.55
27.88
27.33
24.96
20.97
15.59
9.13
1.94
-5.68
-13.41
-21.04
-28.3
-35.04
-41.1
-46.36
-50.73
-54.09
-56.41
-57.57
-57.5
-56.07
-53.21
-48.86
-42.99
-35.65
-26.93
-17.06
-6.34
4.82
15.94
26.5
35.97
43.9
49.92
53.76
55.3
54.56
51.69
46.95
40.68
33.27
25.16
16.77
8.52
0.75
-6.14
-11.86
-16.17
-18.85
-19.78
-18.93
-16.41
-12.41
-7.22
-1.2
5.26
11.77
17.98
23.57
28.25
31.81
34.09
34.99
34.49
32.65
29.59
25.54
20.66
15.11
8.92
2.14
-5.26
-13.25
-21.73
-30.48
-39.13
-47.39
-54.91
-61.49
-66.94
-71.16
-74.0
-75.15
-74.25
-70.9
-64.98
-56.7
-46.81
-36.34
-26.53
-18.44
-12.65
-9.33
-8.18
-8.94
-11.43
-15.98
-23.05
-33.14
-46.3
-61.86
-78.99
-96.46
-113.74
-130.36
-146.44
-161.77
-176.44
-190.6
-204.68
-219.47
-234.57
-248.56
-258.19
-260.06
-251.46
-232.21
-204.95
-174.08
-144.71
-120.2
-102.08
-89.47
-80.82
-74.27
-68.24
-61.54
-52.32
-39.18
-20.57
3.49
31.97
62.35
91.35
116.0
133.55
143.26
145.3
141.88
135.49
129.26
125.36
124.26
125.04
124.79
121.02
111.55
96.5
76.84
54.6
31.99
10.8
-6.68
-19.09
-24.98
-24.8
-19.65
-11.98
-4.44
1.1
3.28
2.77
0.44
-1.53
-1.58
2.2
10.81
23.9
39.89
55.14
66.28
70.15
66.39
56.12
42.29
28.1
16.02
8.02
4.17
4.13
5.77
6.86
4.52
-3.11
-15.8
-31.27
-44.76
-52.07
-50.19
-39.94
-24.23
-7.42
6.93
17.37
23.76
27.66
29.73
30.8
30.47
28.75
26.1
23.05
20.41
17.61
14.03
8.24
0.34
-8.64
-16.68
-22.16
-25.68
-29.54
-37.42
-50.69
-67.87
-83.57
-91.98
-90.25
-80.64
-70.73
-68.46
-78.67
-98.72
-120.57
-133.53
-130.54
-111.4
-82.21
-52.73
-30.1
-16.81
-9.19
-1.2
12.44
32.87
56.63
78.33
92.53
97.54
94.82
88.67
83.16
80.7
81.2
82.26
81.82
78.26
72.67
67.21
65.18
68.81
78.19
91.22
103.84
112.71
115.48
112.74
106.08
97.65
88.77
79.91
72.4
67.99
69.66
78.37
92.7
107.43
116.2
115.02
104.38
89.9
78.33
74.94
79.78
89.22
97.67
100.52
95.53
81.55
58.72
27.03
-11.29
-51.96
-87.88
-112.19
-121.03
-115.29
-101.09
-85.65
-75.13
-71.15
-72.0
-73.99
-73.86
-70.55
-64.36
-57.04
-49.17
-40.75
-30.81
-18.95
-5.94
5.71
11.83
9.25
-3.6
-24.16
-47.49
-67.31
-79.7
-84.82
-86.12
-88.58
-94.11
-101.14
-104.26
-98.59
-81.89
-56.25
-26.8
1.7
25.98
46.15
63.07
77.67
88.98
95.25
95.02
88.07
76.4
62.48
48.99
36.97
26.83
17.99
9.9
2.39
-4.85
-11.21
-16.46
-19.1
-17.94
-11.48
0.43
15.97
31.98
44.24
50.52
50.4
46.54
41.96
39.46
40.19
43.64
49.3
56.07
63.75
71.13
76.91
78.8
74.96
65.01
49.88
32.48
15.33
1.11
-9.01
-13.99
-13.62
-8.52
-0.19
8.15
13.71
14.19
10.16
3.66
-2.24
-5.41
-5.51
-2.74
2.15
9.98
21.26
36.32
53.17
68.54
79.48
84.79
86.43
86.94
88.45
89.61
87.37
78.54
62.74
43.92
28.03
20.88
23.44
32.07
39.03
37.51
24.84
4.32
-16.0
-28.49
-28.86
-19.51
-7.01
0.44
-2.11
-14.53
-32.54
-49.72
-62.14
-68.84
-72.71
-77.39
-85.79
-98.0
-111.29
-121.95
-125.85
-121.41
-108.78
-90.6
-69.8
-48.9
-29.37
-11.47
4.21
17.49
27.24
33.6
37.14
39.85
43.84
49.76
56.75
61.63
61.69
55.17
43.4
29.23
15.86
5.39
-2.22
-7.48
-11.43
-13.5
-13.02
-8.52
0.71
14.74
33.6
56.29
81.9
107.56
129.67
143.34
145.26
134.56
113.58
87.52
61.15
38.12
18.67
1.59
-15.57
-34.04
-53.4
-71.94
-86.8
-96.38
-100.06
-99.42
-96.64
-94.3
-93.65
-94.1
-93.94
-90.15
-81.12
-66.12
-46.89
-25.72
-5.05
13.24
28.24
38.53
43.12
40.31
29.85
12.27
-10.02
-33.46
-54.6
-70.21
-79.38
-82.25
-81.11
-78.28
-76.56
-77.6
-81.36
-86.66
-90.38
-89.97
-83.08
-69.71
-50.71
-28.15
-4.47
18.19
37.18
50.94
58.03
59.04
55.19
49.04
43.04
38.73
36.9
36.42
36.14
34.09
29.38
21.08
9.24
-5.11
-20.28
-33.01
-40.65
-40.7
-33.2
-19.37
-1.95
16.03
32.21
44.33
51.68
53.74
51.7
47.04
42.32
39.7
40.08
43.08
46.05
46.37
41.33
30.46
14.21
-5.56
-26.37
-45.92
-61.26
-70.54
-72.14
-66.66
-55.57
-41.73
-28.12
-16.86
-9.51
-5.68
-4.77
-4.78
-4.19
-0.98
6.07
16.72
29.55
41.0
47.87
47.25
39.04
24.46
6.27
-12.6
-29.99
-43.77
-53.15
-57.36
-57.21
-53.88
-49.7
-46.93
-46.83
-49.79
-53.97
-57.41
-57.41
-52.77
-42.73
-27.81
-9.65
9.58
26.41
38.18
42.6
39.92
31.55
20.29
8.98
-0.57
-6.98
-10.6
-11.7
-11.7
-11.57
-12.81
-16.4
-22.31
-29.78
-36.16
-39.14
-36.23
-27.08
-12.2
6.48
26.39
45.15
59.89
69.08
71.42
67.72
59.43
49.17
39.43
31.67
26.75
23.58
21.16
17.61
12.1
3.81
-7.27
-20.21
-33.66
-44.8
-51.44
-51.3
-44.33
-31.29
-14.38
3.78
20.94
34.65
43.94
48.01
47.91
44.96
41.44
39.26
39.17
41.07
42.97
43.06
39.23
31.04
18.54
2.85
-14.14
-30.45
-43.18
-50.39
-50.32
-43.44
-31.01
-15.51
0.39
14.68
25.36
31.98
34.15
33.08
30.02
27.13
26.12
27.53
30.93
33.89
34.23
29.62
19.75
5.08
-12.68
-31.19
-48.27
-61.06
-67.89
-67.32
-60.08
-47.62
-32.55
-17.57
-4.54
4.91
10.84
13.38
14.0
13.94
15.1
18.75
24.97
32.86
39.5
42.36
38.96
29.18
13.97
-4.35
-23.05
-39.85
-52.21
-58.89
-58.81
-52.9
-42.58
-30.46
-19.14
-10.3
-5.14
-2.91
-2.79
-2.79
-1.66
2.15
9.34
19.4
30.94
40.74
46.07
44.42
35.79
21.3
3.46
-14.92
-31.65
-44.39
-52.19
-54.18
-51.26
-44.75
-37.08
-30.64
-26.89
-26.67
-28.76
-31.82
-33.44
-32.12
-26.26
-15.29
-0.01
17.81
34.54
47.1
52.73
51.34
44.1
33.49
22.17
11.89
4.5
0.48
0.54
3.89
9.65
15.85
20.47
22.24
20.37
16.03
10.54
6.34
4.97
8.06
16.04
27.9
41.54
52.99
59.01
56.91
46.96
30.86
11.72
-7.34
-24.24
-37.1
-45.57
-49.13
-48.75
-45.52
-41.61
-39.1
-39.13
-42.0
-45.8
-48.59
-47.74
-42.26
-31.63
-16.63
0.95
18.96
34.05
43.82
46.08
41.17
30.35
16.23
1.6
-11.49
-21.03
-26.53
-27.52
-25.15
-20.64
-16.22
-13.81
-14.36
-18.02
-22.95
-27.32
-28.63
-25.81
-18.04
-5.66
9.91
26.68
41.2
50.82
53.13
48.28
37.52
23.44
8.84
-4.28
-13.94
-19.67
-20.98
-18.92
-14.71
-10.57
-8.48
-9.38
-13.35
-18.37
-22.43
-22.98
-19.06
-10.14
3.09
18.93
35.35
49.02
57.53
58.66
52.67
40.78
25.58
9.85
-4.34
-14.91
-21.28
-22.94
-20.97
-16.64
-12.2
-9.66
-10.01
-13.49
-18.29
-22.61
-23.99
-21.35
-13.85
-1.84
13.28
29.53
43.49
52.5
54.18
48.72
37.34
22.64
7.39
-6.4
-16.73
-23.03
-24.71
-22.76
-18.32
-13.57
-10.55
-10.37
-13.41
-18.0
-22.44
-24.23
-22.16
-15.24
-3.64
11.27
27.47
41.38
50.23
51.55
45.53
33.51
18.2
2.45
-11.7
-22.29
-28.8
-30.7
-29.01
-24.88
-20.57
-18.15
-18.66
-22.31
-27.11
-31.06
-31.52
-27.45
-18.22
-4.5
12.0
29.14
43.51
52.63
54.27
48.77
37.51
23.23
8.77
-3.95
-13.25
-19.1
-21.41
-21.44
-20.19
-19.38
-20.36
-23.53
-28.64
-33.53
-36.28
-34.51
-27.6
-15.45
0.75
18.92
36.8
51.18
59.9
61.11
55.37
44.13
30.12
16.1
3.94
-4.82
-10.31
-12.66
-13.21
-12.97
-13.51
-15.95
-20.47
-26.61
-32.15
-35.16
-33.31
-26.11
-13.61
2.83
21.08
38.87
53.07
61.7
63.03
57.7
47.17
34.2
21.5
10.87
3.58
-0.88
-2.98
-4.33
-5.88
-8.96
-14.28
-21.61
-30.15
-37.46
-41.5
-40.02
-32.77
-20.17
-3.96
13.52
30.01
42.7
49.99
50.5
45.02
34.95
22.88
11.34
1.93
-4.23
-7.81
-9.41
-10.63
-12.22
-15.15
-19.76
-25.6
-32.0
-36.92
-38.82
-35.82
-27.68
-14.56
2.15
20.3
37.59
50.89
58.25
58.12
51.3
39.36
25.15
11.37
-0.24
-8.43
-13.69
-16.43
-18.14
-19.64
-22.19
-26.46
-32.33
-39.19
-44.82
-47.39
-44.7
-36.44
-22.85
-5.52
13.26
31.14
45.07
53.24
54.16
48.62
38.21
25.73
13.87
4.23
-2.18
-6.25
-8.83
-11.57
-15.25
-20.74
-28.25
-37.13
-46.4
-53.61
-56.82
-53.91
-44.72
-29.78
-10.96
9.23
28.45
43.8
53.76
57.05
54.54
47.7
39.18
31.43
25.82
23.05
21.86
21.08
18.77
14.13
6.36
-4.53
-17.57
-31.41
-43.22
-50.73
-51.61
-45.71
-33.7
-17.66
-0.15
16.62
30.09
39.11
42.68
41.72
37.59
32.76
29.41
28.56
30.3
32.62
33.69
31.19
24.48
13.37
-1.24
-17.56
-33.58
-46.11
-52.84
-51.67
-42.94
-28.02
-9.72
8.94
25.61
38.11
45.86
48.45
47.15
43.39
39.6
37.82
38.85
42.4
45.95
47.14
43.4
34.26
20.02
2.29
-16.61
-34.48
-48.27
-55.98
-55.83
-48.31
-34.8
-18.04
-1.0
14.03
24.9
31.18
32.64
30.72
26.93
23.74
23.08
25.52
30.42
34.94
36.48
32.47
22.67
7.81
-10.11
-28.57
-45.44
-57.93
-64.4
-63.25
-54.98
-40.8
-23.24
-5.19
11.0
23.0
30.16
32.1
30.25
26.25
22.71
21.73
23.98
28.91
33.68
35.6
31.94
22.23
6.92
-12.19
-32.72
-52.48
-68.56
-79.15
-82.54
-79.23
-70.51
-59.1
-47.74
-38.37
-32.35
-29.15
-28.04
-27.1
-24.99
-19.96
-11.09
1.24
15.59
28.55
37.05
38.21
31.8
18.87
2.0
-15.91
-32.65
-45.95
-54.99
-59.0
-58.96
-56.17
-53.06
-51.85
-53.57
-58.18
-63.4
-66.94
-66.07
-59.91
-48.21
-32.06
-13.43
5.55
21.75
33.0
37.32
35.04
27.37
16.81
5.92
-3.69
-10.77
-15.8
-19.18
-22.3
-25.9
-31.03
-38.13
-46.75
-56.0
-63.42
-67.02
-64.54
-55.65
-40.61
-21.06
0.67
22.2
40.43
53.48
59.75
59.85
55.08
47.94
40.78
34.99
31.45
29.3
27.8
25.43
21.54
15.27
6.5
-4.09
-15.31
-24.49
-29.42
-27.75
-19.2
-4.28
15.11
36.45
57.35
74.91
87.52
93.84
94.62
91.25
86.35
82.31
80.37
80.89
82.18
82.58
79.81
72.97
61.38
45.44
26.6
6.88
-10.24
-21.97
-25.81
-21.92
-11.7
1.96
16.0
28.26
36.81
41.42
41.86
39.44
35.51
32.37
31.91
34.69
39.98
44.76
46.17
41.41
30.21
13.44
-6.61
-27.13
-45.82
-59.88
-67.75
-67.95
-61.07
-48.33
-32.32
-15.89
-1.35
9.06
14.88
15.92
13.77
10.11
7.55
8.05
12.02
18.53
24.33
26.47
22.14
11.15
-5.55
-25.66
-46.47
-65.8
-80.99
-90.58
-93.11
-89.16
-79.97
-68.15
-56.49
-47.0
-41.12
-38.28
-37.65
-37.05
-34.93
-29.38
-19.46
-5.75
10.0
23.98
32.85
33.72
26.63
13.07
-3.97
-21.4
-37.18
-49.43
-57.74
-61.63
-62.03
-60.0
-57.67
-57.04
-59.12
-64.09
-69.89
-74.44
-74.92
-70.22
-59.65
-43.88
-24.64
-4.06
14.43
28.26
35.04
34.88
28.82
19.31
8.94
-0.43
-6.98
-10.37
-10.28
-7.9
-4.47
-2.22
-2.98
-7.35
-14.73
-22.36
-27.5
-27.2
-20.62
-7.78
9.91
30.31
51.26
69.69
83.53
90.83
91.83
87.62
80.65
73.46
67.71
64.53
63.2
62.95
61.88
58.83
52.34
41.76
27.7
11.66
-2.98
-13.28
-16.41
-12.14
-1.38
13.43
29.53
44.73
56.76
64.79
68.05
67.48
64.33
60.95
59.42
60.58
64.2
67.85
69.16
65.52
56.31
41.67
23.0
2.48
-17.7
-34.41
-45.51
-48.99
-45.16
-35.28
-22.02
-8.28
3.7
11.86
15.86
15.55
12.41
8.04
4.92
4.96
8.5
14.47
19.42
20.17
13.8
0.21
-19.4
-42.34
-65.65
-87.01
-103.85
-114.87
-118.81
-116.27
-108.51
-98.12
-87.87
-79.76
-75.24
-73.61
-73.85
-73.56
-70.98
-64.09
-51.93
-35.13
-15.53
2.9
16.67
22.78
21.13
13.12
1.68
-10.3
-20.9
-28.49
-32.87
-33.7
-31.97
-28.77
-26.23
-26.29
-29.71
-36.06
-42.53
-46.25
-44.11
-35.23
-19.76
0.61
23.45
46.42
66.42
81.48
89.8
91.72
88.45
82.54
76.61
72.31
70.66
70.68
71.27
70.32
66.55
58.58
46.04
29.9
12.15
-3.32
-13.25
-14.82
-8.16
5.11
21.76
38.54
53.22
63.9
70.34
72.28
70.91
67.52
64.4
63.54
65.59
69.88
73.25
72.66
65.12
50.29
29.12
4.1
-21.81
-46.2
-66.31
-80.61
-87.65
-87.94
-82.65
-74.32
-65.7
-58.91
-55.65
-55.63
-58.18
-61.05
-62.26
-59.31
-50.7
-36.77
-19.48
-3.19
8.19
11.36
6.32
-5.2
-19.96
-34.85
-47.97
-57.76
-64.09
-66.54
-65.92
-63.15
-60.19
-59.05
-60.73
-65.22
-70.13
-72.91
-70.52
-61.89
-46.8
-26.55
-3.36
20.42
41.49
57.58
66.63
68.9
65.53
59.12
52.34
47.03
44.59
44.56
46.35
48.0
48.02
44.38
35.93
23.12
7.85
-5.72
-13.87
-13.42
-4.41
11.38
30.53
49.64
66.42
78.98
87.11
90.45
90.12
87.37
84.55
83.75
85.67
89.58
92.14
90.08
80.35
62.84
38.94
11.7
-15.55
-40.29
-59.94
-73.32
-79.27
-78.45
-72.04
-62.57
-52.83
-45.01
-40.91
-40.23
-42.27
-44.7
-45.61
-42.58
-34.39
-21.51
-5.97
7.99
16.67
17.02
9.19
-5.1
-22.58
-40.18
-55.93
-68.16
-76.61
-80.77
-81.49
-79.69
-77.44
-76.76
-78.67
-83.2
-88.02
-90.69
-88.27
-79.79
-65.04
-45.28
-22.66
0.54
21.09
36.72
45.35
47.19
43.3
36.15
28.36
21.79
18.0
16.84
18.03
19.96
21.28
20.04
15.04
6.47
-4.24
-13.51
-18.15
-15.22
-4.5
12.88
34.27
56.74
77.99
95.57
108.43
115.55
117.67
116.01
112.97
110.82
110.69
112.64
114.46
113.94
108.46
97.35
80.6
59.49
36.13
12.72
-7.58
-22.48
-29.82
-29.8
-23.58
-13.77
-3.26
5.74
11.22
12.9
10.76
6.43
1.65
-0.94
0.58
6.42
15.15
22.76
25.56
20.3
6.87
-13.23
-36.97
-61.18
-83.64
-102.11
-115.71
-123.42
-125.84
-123.96
-120.03
-116.43
-114.71
-115.69
-117.95
-119.82
-118.63
-112.94
-101.53
-84.45
-63.01
-39.3
-17.04
0.75
11.31
14.55
11.58
5.0
-2.48
-8.94
-12.65
-13.42
-11.08
-6.91
-2.28
0.47
-0.46
-5.43
-13.21
-20.13
-22.68
-17.59
-4.45
15.58
39.7
64.84
88.53
108.25
122.87
131.3
134.23
132.9
129.79
127.29
126.6
127.78
128.5
126.42
118.86
105.2
85.64
61.68
35.64
9.73
-12.91
-30.13
-39.86
-42.3
-38.55
-31.18
-23.09
-16.49
-13.42
-14.04
-18.18
-23.9
-29.16
-31.02
-27.43
-18.24
-5.28
6.92
14.14
12.82
2.9
-13.77
-33.72
-53.63
-71.43
-85.4
-95.27
-100.49
-101.83
-100.2
-97.7
-96.47
-97.65
-101.34
-105.21
-106.72
-102.88
-92.72
-76.18
-54.68
-30.55
-6.16
15.28
31.59
40.78
43.1
39.63
32.82
25.32
19.03
15.61
14.98
16.9
19.7
21.92
21.47
17.01
8.68
-2.05
-11.54
-16.47
-13.85
-3.45
13.57
34.54
56.55
77.33
94.52
107.13
114.16
116.33
114.8
111.96
110.06
110.14
112.18
113.81
112.72
106.27
93.85
75.71
53.33
28.99
4.9
-15.85
-31.13
-38.9
-39.36
-33.64
-24.3
-14.2
-5.62
-0.61
0.55
-2.09
-6.76
-11.58
-13.74
-11.25
-3.9
6.74
16.51
21.52
18.44
7.11
-10.94
-32.62
-54.79
-75.35
-92.23
-104.73
-111.96
-114.52
-113.35
-110.58
-108.47
-108.37
-110.84
-114.12
-116.31
-114.65
-107.9
-95.2
-77.04
-55.05
-31.38
-9.56
7.65
17.72
20.63
17.42
10.56
2.73
-4.15
-8.25
-9.32
-7.15
-3.08
1.5
4.24
3.34
-1.54
-9.28
-16.37
-19.44
-15.3
-3.47
15.14
38.06
62.4
85.8
105.61
120.5
129.21
132.38
131.23
128.28
125.93
125.34
126.58
127.36
125.45
118.25
105.18
86.38
63.24
37.94
12.6
-9.67
-26.66
-36.25
-38.56
-34.61
-26.94
-18.39
-11.23
-7.51
-7.53
-11.23
-16.79
-22.23
-24.66
-22.0
-14.0
-2.25
9.01
15.77
14.56
5.16
-10.96
-30.72
-51.02
-69.77
-84.98
-96.02
-102.04
-103.72
-102.03
-99.2
-97.51
-98.18
-101.37
-104.84
-106.14
-102.33
-92.39
-76.12
-54.79
-30.57
-5.81
16.22
33.22
43.1
46.09
43.37
37.55
31.36
26.6
24.58
24.71
26.27
27.4
26.78
22.76
14.6
3.0
-10.09
-20.66
-25.23
-20.89
-7.84
12.08
35.34
58.42
78.86
94.57
105.15
110.2
110.89
108.57
105.72
104.55
105.88
109.08
110.95
108.29
98.07
80.02
55.34
26.8
-2.42
-29.88
-52.92
-70.19
-80.4
-84.09
-82.34
-77.6
-72.54
-69.09
-68.75
-70.9
-74.59
-77.43
-77.59
-72.89
-62.32
-46.54
-27.61
-9.8
3.17
8.16
5.16
-4.25
-16.97
-29.99
-41.4
-49.59
-54.38
-55.38
-53.52
-49.85
-46.51
-45.5
-47.71
-52.74
-57.78
-59.9
-55.9
-44.94
-27.28
-4.78
19.96
44.52
65.85
82.08
91.51
94.59
92.58
88.07
83.65
80.9
80.61
81.47
82.14
80.36
75.0
64.99
50.36
32.37
13.11
-3.64
-14.75
-17.5
-12.05
0.02
15.5
31.15
44.64
54.03
59.09
59.66
57.11
52.92
49.58
49.13
52.05
57.22
60.91
59.54
49.92
31.94
7.14
-21.23
-49.79
-76.04
-97.56
-113.37
-122.47
-125.56
-123.78
-119.55
-115.41
-113.1
-113.58
-115.61
-117.62
-116.92
-111.96
-101.28
-84.72
-63.46
-39.6
-16.95
1.3
12.32
16.0
13.51
7.5
0.68
-5.09
-8.2
-8.55
-6.0
-1.81
2.66
5.14
3.78
-1.77
-10.29
-18.06
-21.42
-17.02
-4.44
15.13
38.79
63.35
86.3
105.17
118.89
126.5
128.78
127.05
123.87
121.67
121.54
123.3
124.21
121.56
112.44
96.35
73.85
46.94
18.27
-9.84
-34.47
-53.76
-65.97
-71.38
-71.05
-67.48
-63.36
-60.68
-61.03
-63.98
-68.81
-73.27
-75.43
-72.85
-64.11
-49.56
-31.18
-13.37
-0.14
5.08
2.13
-7.41
-20.34
-33.56
-45.06
-53.21
-57.83
-58.54
-56.33
-52.36
-48.92
-48.13
-50.8
-56.24
-61.15
-62.14
-55.84
-41.65
-20.46
5.09
31.88
57.34
78.71
94.66
103.94
107.24
105.84
102.29
99.13
97.75
98.58
99.75
99.31
94.72
85.11
70.12
50.64
28.56
6.12
-13.25
-26.94
-32.66
-30.63
-22.21
-10.31
2.02
12.49
19.08
21.55
19.87
15.74
11.01
8.52
10.46
17.21
27.27
36.4
40.52
36.12
23.02
2.99
-20.56
-44.18
-65.56
-82.66
-94.92
-101.64
-103.65
-102.11
-99.43
-98.01
-99.12
-102.71
-106.11
-106.49
-100.67
-87.83
-68.28
-43.96
-17.56
8.43
30.95
48.15
58.36
62.06
60.51
56.36
52.22
49.71
49.64
50.72
51.61
50.1
45.13
35.78
22.18
5.71
-11.47
-25.56
-33.48
-32.62
-23.28
-7.23
12.13
31.34
47.9
59.73
66.56
68.28
66.44
62.78
60.15
60.84
65.45
72.69
78.45
78.71
70.01
52.3
27.5
-0.69
-28.58
-53.64
-73.8
-88.47
-97.02
-100.33
-99.6
-97.31
-95.95
-96.94
-100.46
-104.11
-105.2
-100.57
-89.21
-71.09
-47.85
-21.98
3.98
26.82
44.43
55.01
59.0
57.75
53.95
50.23
48.1
48.29
49.5
50.4
48.84
43.78
34.24
20.24
2.98
-15.5
-31.44
-41.71
-43.6
-37.24
-24.22
-7.8
8.64
22.68
32.29
37.22
37.41
34.52
30.41
28.04
29.83
36.43
46.52
55.91
60.41
56.37
43.55
23.71
0.37
-22.92
-43.81
-60.33
-72.03
-78.34
-80.16
-78.69
-76.36
-75.56
-77.52
-82.09
-86.52
-87.81
-82.7
-70.32
-51.0
-26.8
-0.49
25.35
47.69
64.7
74.81
78.59
77.35
73.77
70.42
68.79
69.51
71.05
71.86
69.67
63.51
52.64
37.44
19.41
0.7
-15.04
-24.89
-26.3
-19.54
-6.19
10.55
27.38
41.9
52.07
57.65
58.52
56.2
52.35
49.68
50.29
54.65
61.41
66.57
66.26
57.16
39.23
14.3
-14.14
-42.53
-68.42
-89.66
-105.54
-115.29
-119.66
-119.72
-117.75
-116.15
-116.4
-119.14
-122.66
-125.0
-123.36
-116.46
-103.45
-84.86
-62.4
-38.29
-16.11
1.4
11.76
14.99
12.18
5.84
-1.43
-7.76
-11.43
-12.26
-10.06
-6.11
-1.7
0.96
0.16
-4.42
-11.77
-18.56
-21.6
-17.75
-6.5
11.48
33.91
58.05
81.56
101.68
116.92
125.88
129.12
127.84
124.55
121.68
120.48
121.16
121.68
119.97
113.51
101.51
83.8
61.37
36.13
10.2
-13.15
-31.44
-42.31
-45.79
-42.96
-36.47
-29.19
-23.33
-20.84
-21.82
-26.08
-31.72
-36.7
-38.08
-33.72
-23.43
-8.99
5.02
14.21
14.89
6.88
-8.03
-26.31
-44.56
-60.61
-72.74
-80.69
-83.98
-83.48
-80.28
-76.7
-75.04
-76.38
-80.39
-84.08
-84.24
-77.52
-63.14
-41.75
-15.74
11.85
38.37
60.86
77.72
87.57
91.09
89.65
85.97
82.66
81.18
81.96
83.12
82.67
78.04
68.23
52.73
32.28
8.64
-15.98
-38.09
-55.03
-64.45
-66.52
-62.58
-55.5
-48.22
-42.74
-40.59
-41.4
-44.64
-48.33
-50.62
-48.96
-41.55
-28.21
-10.51
7.39
21.43
27.94
26.45
18.22
6.29
-6.26
-17.32
-25.07
-29.23
-29.36
-26.58
-22.3
-19.13
-19.43
-24.02
-31.95
-39.39
-42.44
-37.39
-23.69
-2.61
22.68
48.67
72.63
92.0
105.8
113.2
115.18
113.34
110.47
109.2
110.55
113.83
115.61
112.44
101.09
81.32
54.58
23.93
-7.22
-36.27
-60.68
-79.28
-90.94
-96.34
-96.72
-94.64
-92.79
-92.83
-95.44
-98.87
-101.1
-99.21
-91.8
-77.97
-58.23
-34.31
-8.56
15.35
34.57
46.66
51.79
51.31
48.06
44.74
42.96
43.62
45.79
48.57
50.06
49.04
43.92
33.88
19.46
2.4
-13.38
-24.32
-27.24
-21.95
-9.9
5.74
21.69
35.63
45.58
51.24
52.33
50.13
46.11
42.84
42.56
46.09
52.72
59.09
61.76
57.37
45.27
26.29
2.98
-21.66
-45.2
-65.06
-80.07
-89.15
-93.07
-93.06
-91.53
-90.74
-91.86
-95.02
-98.12
-99.0
-94.91
-84.88
-68.57
-47.09
-22.47
2.99
26.04
44.49
56.46
62.4
63.63
62.78
62.24
63.05
65.3
66.98
66.29
61.04
50.73
35.3
15.8
-5.9
-27.65
-46.18
-59.08
-64.18
-61.8
-53.42
-42.12
-31.04
-22.31
-17.32
-15.39
-15.61
-15.82
-14.49
-9.74
-0.59
12.5
27.88
41.81
51.03
52.61
46.56
34.37
19.08
3.72
-9.8
-19.98
-27.01
-30.94
-33.02
-34.28
-36.46
-40.94
-47.87
-56.31
-63.07
-65.13
-59.49
-45.82
-25.13
-0.17
25.82
50.14
70.02
84.25
91.89
94.01
92.26
89.49
88.24
89.45
92.58
94.48
92.11
82.53
65.48
42.01
14.64
-13.69
-40.6
-63.38
-80.54
-90.66
-94.24
-92.54
-88.23
-84.08
-81.9
-82.57
-84.62
-86.28
-84.78
-78.6
-66.5
-48.52
-26.01
-1.12
22.38
41.42
53.35
58.17
57.24
53.48
49.68
47.45
47.62
49.11
50.89
50.96
48.11
40.88
28.61
11.94
-7.33
-25.34
-38.59
-43.96
-41.28
-32.05
-19.48
-6.86
3.61
10.32
13.49
13.41
11.75
10.03
10.55
15.06
23.8
35.45
46.22
52.48
50.91
41.27
25.0
5.25
-14.75
-32.79
-47.01
-57.14
-62.88
-65.29
-65.51
-65.61
-67.39
-71.48
-77.33
-82.04
-82.79
-76.57
-62.87
-42.35
-17.41
9.0
34.29
55.74
72.12
82.46
87.71
89.21
89.3
89.97
91.91
94.83
96.33
94.22
86.15
71.86
51.94
28.27
3.36
-20.51
-40.53
-55.06
-62.72
-64.17
-60.75
-55.01
-49.45
-45.54
-44.08
-43.88
-43.7
-41.39
-35.89
-26.16
-12.31
4.41
22.0
36.93
46.47
48.27
42.71
31.39
17.38
3.61
-8.13
-16.64
-22.54
-26.29
-29.39
-32.65
-37.37
-44.25
-52.93
-62.27
-69.19
-70.98
-64.98
-51.07
-30.35
-5.58
20.06
43.89
63.22
76.95
84.24
86.2
84.41
81.61
80.15
81.0
83.79
85.76
84.24
76.47
62.06
41.7
17.49
-7.9
-32.15
-52.52
-67.49
-75.7
-77.8
-75.09
-70.12
-65.37
-62.31
-61.57
-61.72
-61.23
-57.8
-50.39
-38.23
-21.74
-2.4
17.73
35.3
47.81
53.1
51.53
44.57
35.04
25.66
18.0
12.95
9.6
7.13
3.87
-0.99
-8.48
-18.91
-31.47
-44.6
-54.97
-59.78
-56.42
-44.98
-26.84
-5.04
17.11
37.07
52.5
62.76
67.44
67.84
65.52
63.06
62.58
64.8
69.04
72.18
71.27
63.41
48.37
27.19
2.51
-22.69
-46.03
-64.97
-78.4
-85.3
-86.5
-83.3
-78.17
-73.48
-70.61
-70.07
-70.25
-69.46
-65.21
-56.48
-42.63
-24.35
-3.29
18.39
37.44
51.57
58.8
59.6
55.36
48.77
42.33
37.36
34.51
32.57
30.56
26.72
20.38
10.8
-1.96
-16.85
-32.2
-44.8
-51.99
-51.32
-42.87
-27.92
-9.35
9.68
26.78
39.72
48.05
51.51
51.5
49.58
48.19
49.29
53.39
59.69
65.01
66.36
60.81
48.05
29.02
6.19
-17.59
-40.02
-58.62
-72.24
-79.81
-82.11
-80.34
-76.93
-74.18
-73.36
-74.84
-76.78
-77.29
-73.76
-65.17
-50.96
-31.91
-9.81
13.15
33.68
49.43
58.36
60.87
58.32
53.38
48.58
45.24
43.94
43.34
42.25
38.81
32.29
21.97
8.06
-8.24
-25.02
-38.83
-46.82
-46.49
-38.04
-23.02
-4.59
13.91
30.06
41.8
48.89
51.26
50.45
48.1
46.77
48.47
53.73
61.53
68.32
70.68
65.41
52.2
32.24
8.38
-16.28
-39.41
-58.72
-73.33
-82.37
-86.62
-87.18
-86.33
-86.22
-87.99
-91.84
-95.71
-97.45
-94.29
-85.2
-69.79
-49.14
-25.27
-0.51
21.88
39.68
50.99
56.23
56.69
54.9
53.18
52.66
53.7
54.77
54.55
51.12
43.9
32.43
17.24
-0.19
-17.8
-32.19
-40.66
-40.88
-33.17
-19.11
-1.85
15.39
30.29
40.97
47.41
49.67
49.34
47.88
47.6
50.19
55.97
63.87
70.48
72.57
67.09
53.79
33.83
9.96
-14.77
-38.0
-57.37
-71.9
-80.66
-84.42
-84.36
-82.8
-81.97
-83.09
-86.47
-90.23
-92.37
-90.21
-82.64
-69.04
-50.16
-27.78
-4.11
17.48
34.58
45.05
49.17
48.19
44.66
40.98
38.45
37.75
37.73
37.47
35.26
30.38
22.02
10.14
-4.21
-19.3
-31.75
-38.73
-37.64
-28.54
-12.77
6.71
26.71
44.72
58.4
67.06
70.22
69.13
65.36
61.56
59.97
61.37
65.11
68.02
67.05
59.26
44.35
23.3
-1.37
-26.76
-50.48
-69.81
-83.31
-89.61
-89.35
-83.88
-75.89
-68.2
-62.67
-60.42
-60.36
-61.14
-60.29
-56.33
-47.77
-34.27
-16.83
2.6
20.31
33.28
38.82
37.03
29.3
18.47
7.33
-2.36
-9.26
-13.58
-15.42
-16.01
-16.31
-17.97
-22.22
-29.2
-38.02
-45.7
-49.46
-46.38
-35.97
-18.84
2.79
26.16
48.8
67.86
81.87
89.58
91.74
89.76
86.24
83.62
83.04
84.6
86.15
85.58
80.4
69.93
54.06
33.94
11.55
-10.93
-30.23
-44.0
-50.12
-48.89
-41.67
-31.32
-20.79
-12.12
-6.84
-4.59
-4.9
-5.94
-6.3
-4.06
2.04
11.82
23.93
34.85
41.37
40.5
32.0
16.95
-2.04
-22.08
-41.0
-56.51
-67.74
-73.78
-75.41
-73.71
-70.93
-69.24
-69.81
-73.0
-77.0
-79.91
-79.04
-73.17
-61.45
-44.33
-23.39
-0.84
19.73
35.57
44.24
45.91
41.88
34.89
27.63
21.73
18.32
16.77
16.55
16.14
14.62
10.59
3.29
-6.99
-19.04
-29.74
-36.27
-35.78
-27.88
-13.32
5.6
26.04
45.6
61.62
72.85
78.24
78.68
75.55
71.36
68.4
67.73
69.38
71.22
71.18
66.78
57.33
42.72
24.06
3.3
-17.45
-35.11
-47.55
-52.87
-51.46
-44.55
-34.68
-24.4
-15.48
-9.4
-5.95
-4.92
-4.77
-4.28
-1.62
4.39
13.65
24.93
35.01
40.98
40.08
32.11
18.02
0.26
-18.44
-35.95
-50.05
-59.95
-64.86
-65.67
-63.45
-60.23
-57.84
-57.22
-58.69
-60.64
-61.55
-59.16
-52.57
-41.12
-25.37
-6.9
12.18
28.55
39.79
43.86
41.17
33.13
22.36
11.44
1.87
-5.22
-10.33
-13.75
-16.72
-19.86
-24.18
-30.19
-37.54
-45.34
-51.08
-52.7
-47.93
-36.61
-19.31
1.96
24.55
45.98
63.28
74.79
79.24
77.49
71.05
62.62
54.68
48.64
45.11
42.79
40.43
36.07
28.94
18.35
4.52
-11.38
-27.67
-41.22
-49.55
-50.29
-43.53
-30.39
-13.5
4.24
20.52
33.02
41.0
43.78
42.47
38.43
34.09
31.5
31.54
33.99
36.43
36.6
32.0
22.17
7.43
-10.59
-29.6
-47.35
-60.81
-68.05
-67.38
-59.42
-45.61
-28.77
-11.82
3.08
14.03
20.92
23.8
24.24
23.72
24.51
28.23
35.13
44.2
52.19
56.11
53.11
42.95
26.57
6.37
-14.9
-35.05
-51.62
-63.36
-69.06
-69.35
-65.38
-59.56
-54.33
-51.26
-51.26
-53.16
-55.62
-56.26
-53.66
-46.34
-33.96
-17.49
1.09
18.02
30.13
34.61
31.48
22.1
9.29
-4.03
-15.94
-24.72
-30.21
-32.13
-31.53
-29.46
-27.88
-28.49
-31.91
-37.76
-43.49
-46.55
-44.12
-35.38
-20.45
-0.88
20.95
42.62
60.95
73.88
79.66
78.81
72.74
64.19
55.81
49.19
45.23
42.81
40.88
37.53
31.86
22.93
10.63
-4.06
-19.57
-32.69
-40.77
-41.3
-34.24
-20.67
-3.16
15.35
32.54
46.01
54.9
58.48
57.79
54.19
50.14
47.76
47.95
50.54
53.13
53.43
48.89
38.97
23.89
5.1
-15.14
-34.63
-50.23
-59.84
-61.56
-55.86
-44.12
-29.18
-14.02
-0.84
8.47
13.81
15.28
14.49
12.92
12.78
15.69
21.87
30.38
38.01
41.86
39.08
29.38
13.66
-5.75
-26.08
-45.09
-60.27
-70.38
-74.28
-72.71
-66.92
-59.36
-52.46
-47.69
-45.84
-45.66
-45.82
-44.05
-39.15
-29.99
-16.49
0.18
18.08
33.62
43.9
46.4
41.28
29.97
15.35
0.38
-12.96
-22.93
-29.43
-32.23
-32.48
-31.17
-30.13
-30.88
-33.97
-39.16
-44.21
-47.0
-44.93
-37.27
-23.9
-6.11
13.93
33.89
50.54
61.75
65.73
63.03
55.08
44.56
34.07
25.19
18.97
14.67
11.62
8.24
3.7
-3.09
-12.54
-24.11
-36.61
-47.22
-53.51
-53.01
-45.46
-31.52
-13.29
6.57
25.74
41.59
52.86
58.5
59.39
56.83
53.2
50.59
49.96
51.41
53.02
53.07
49.38
41.37
28.84
12.73
-5.2
-22.94
-37.33
-46.13
-47.32
-41.25
-29.22
-13.89
1.93
16.13
26.73
33.36
35.67
34.9
32.25
29.85
29.35
31.24
34.99
38.01
37.98
32.46
21.21
4.84
-14.67
-34.78
-53.22
-67.16
-75.03
-75.46
-69.23
-57.73
-43.59
-29.4
-17.0
-7.94
-1.97
1.19
3.15
5.17
9.03
15.82
25.34
36.36
45.67
50.49
48.22
38.86
23.53
4.83
-14.4
-31.94
-45.48
-54.05
-56.76
-54.49
-48.49
-41.15
-34.78
-30.73
-29.68
-30.26
-31.04
-29.69
-25.11
-16.26
-3.29
12.56
29.29
43.37
52.03
52.83
46.01
33.01
16.71
0.08
-14.84
-26.24
-33.87
-37.45
-38.07
-36.79
-35.5
-35.84
-38.5
-43.36
-48.35
-51.43
-50.04
-43.35
-31.03
-14.15
5.35
25.17
41.97
53.46
57.62
54.88
46.61
35.5
24.23
14.49
7.6
3.1
0.67
-1.14
-3.2
-6.87
-12.93
-21.21
-30.84
-39.16
-43.86
-42.44
-34.49
-20.44
-2.17
17.83
37.22
53.09
63.88
68.24
66.94
61.4
54.21
47.77
43.34
41.37
40.3
38.72
34.53
27.05
15.77
1.16
-15.35
-31.92
-45.35
-53.16
-53.05
-45.23
-31.03
-13.22
5.16
21.75
34.31
42.21
44.97
43.81
40.13
36.35
34.52
35.39
38.53
41.29
41.15
35.53
24.11
7.51
-12.28
-32.7
-51.39
-65.41
-72.95
-72.43
-64.49
-50.64
-33.77
-16.93
-2.37
8.07
14.42
16.99
17.58
17.72
19.6
24.66
32.92
43.19
52.07
56.51
53.65
43.37
26.82
6.64
-14.28
-33.69
-49.22
-59.83
-64.5
-64.0
-59.54
-53.54
-48.39
-45.55
-45.66
-47.29
-48.85
-47.92
-43.32
-34.05
-20.26
-3.27
14.91
30.74
41.43
44.48
40.03
29.41
15.36
0.74
-12.44
-22.33
-28.6
-30.87
-30.22
-27.7
-25.34
-24.85
-27.01
-31.74
-36.94
-40.51
-39.83
-33.96
-22.5
-6.38
12.48
31.8
48.19
59.26
62.95
59.69
50.9
39.37
27.83
17.97
10.95
6.18
3.11
0.23
-3.35
-8.91
-17.08
-27.52
-39.1
-48.91
-54.4
-52.99
-44.37
-29.31
-10.02
10.74
30.57
46.75
57.96
63.1
63.01
59.06
53.78
49.49
47.33
47.55
48.31
47.86
43.96
35.98
23.66
7.88
-9.66
-26.96
-40.89
-49.1
-49.45
-42.22
-28.68
-11.54
6.2
22.23
34.27
41.71
44.05
42.54
38.6
34.67
32.75
33.61
36.82
39.79
40.02
34.94
24.18
8.21
-11.11
-31.32
-50.11
-64.48
-72.57
-72.71
-65.52
-52.49
-36.49
-20.5
-6.71
3.14
9.15
11.63
12.26
12.44
14.15
18.7
26.1
35.28
43.13
46.84
43.76
33.76
17.88
-1.42
-21.26
-39.35
-53.16
-61.48
-63.25
-59.3
-51.04
-41.07
-31.98
-25.39
-22.22
-21.26
-21.23
-19.84
-15.85
-8.03
3.76
18.41
34.04
47.04
54.52
53.96
45.61
31.0
13.12
-4.96
-21.18
-33.73
-42.44
-47.03
-48.59
-48.14
-47.52
-48.35
-51.3
-56.3
-61.2
-63.94
-61.93
-54.31
-40.83
-22.63
-1.78
19.37
37.51
50.4
56.09
55.07
48.71
39.7
30.63
23.05
18.0
14.76
12.69
10.24
6.57
0.59
-8.18
-19.18
-31.22
-41.37
-47.13
-45.95
-37.55
-22.67
-3.49
17.27
37.24
53.74
65.49
71.44
72.43
69.84
66.13
63.55
63.09
64.77
66.47
66.22
61.62
52.09
37.57
19.17
-1.13
-21.17
-37.72
-48.43
-51.25
-46.52
-35.68
-21.59
-7.29
5.08
13.68
18.49
19.61
18.56
16.69
16.07
18.19
23.29
30.49
36.77
39.36
35.59
25.22
9.14
-10.32
-30.38
-48.72
-62.67
-70.86
-72.07
-67.1
-57.33
-45.4
-33.98
-24.85
-19.22
-16.32
-15.21
-13.79
-10.72
-4.46
5.62
18.8
33.42
45.94
53.39
53.12
45.17
30.87
13.03
-5.4
-22.34
-35.81
-45.35
-50.44
-52.05
-51.22
-49.96
-50.05
-52.29
-56.69
-61.2
-63.81
-61.98
-54.88
-42.22
-25.04
-5.32
14.7
31.75
43.59
48.24
46.13
38.58
28.21
17.57
8.31
1.67
-2.8
-5.4
-7.49
-9.8
-13.47
-19.08
-26.36
-34.47
-41.01
-43.93
-40.97
-31.8
-16.78
2.38
23.23
43.38
59.73
70.5
74.22
71.66
64.31
54.92
46.0
39.0
34.66
31.79
29.3
25.32
19.1
9.86
-2.33
-16.52
-31.24
-43.54
-51.04
-51.37
-44.47
-31.22
-13.99
4.44
21.79
35.65
45.12
49.47
49.72
47.19
44.15
42.54
43.1
45.67
48.01
48.08
43.57
34.01
19.55
1.57
-17.79
-36.36
-51.03
-59.75
-60.7
-54.4
-42.26
-27.03
-11.58
2.01
11.88
17.92
20.1
19.88
18.62
18.41
20.8
26.09
33.46
40.04
43.18
40.27
31.03
16.22
-2.02
-21.06
-38.72
-52.47
-61.11
-63.53
-60.51
-53.29
-44.17
-35.37
-28.32
-24.02
-21.65
-20.42
-18.43
-14.55
-7.42
3.37
17.01
31.76
44.18
51.48
51.19
43.53
29.85
12.85
-4.71
-20.91
-33.91
-43.27
-48.46
-50.37
-49.96
-49.15
-49.66
-52.26
-56.94
-61.62
-64.3
-62.44
-55.19
-42.24
-24.59
-4.22
16.59
34.5
47.19
52.64
51.26
44.43
34.87
25.22
17.08
11.53
7.85
5.46
2.81
-0.87
-6.66
-15.0
-25.38
-36.71
-46.18
-51.42
-49.91
-41.34
-26.33
-6.93
14.18
34.6
51.52
63.5
69.36
69.93
66.6
61.92
58.19
56.49
57.06
58.03
57.68
53.78
45.65
32.99
16.57
-1.89
-20.34
-35.45
-44.74
-45.97
-39.48
-26.69
-10.52
6.0
20.58
31.19
37.43
39.01
37.22
33.4
29.91
28.64
30.24
34.16
37.52
37.66
31.87
19.85
2.37
-18.32
-39.45
-58.57
-72.78
-80.46
-80.21
-72.82
-59.91
-44.37
-29.16
-16.38
-7.5
-2.04
0.67
2.54
4.92
9.54
17.29
27.74
39.44
48.96
53.41
50.2
39.5
22.75
2.85
-17.12
-34.92
-48.32
-56.53
-58.75
-55.88
-49.14
-40.9
-33.54
-28.64
-27.14
-27.95
-29.76
-30.18
-27.74
-20.94
-9.39
5.9
22.93
37.94
47.77
49.72
43.93
31.87
16.44
0.58
-13.7
-24.54
-31.56
-34.27
-33.61
-30.66
-27.56
-26.29
-27.79
-32.12
-37.14
-40.67
-40.01
-34.25
-23.06
-7.45
10.61
28.93
44.17
54.01
56.38
51.58
40.92
27.01
12.62
-0.29
-9.96
-16.23
-18.95
-19.35
-18.5
-18.16
-19.72
-23.58
-29.43
-35.07
-38.52
-37.36
-30.91
-19.01
-2.79
15.74
34.32
49.67
59.53
61.97
57.46
47.4
34.53
21.58
10.28
1.99
-3.68
-7.07
-9.56
-12.05
-15.87
-21.83
-29.78
-38.89
-46.6
-50.62
-48.48
-39.82
-25.07
-6.11
14.5
34.35
50.43
61.08
64.88
62.6
55.76
47.06
39.04
33.11
29.84
27.82
25.72
21.54
14.58
4.28
-8.99
-23.91
-38.77
-50.46
-56.56
-54.81
-45.39
-29.53
-9.92
10.42
29.1
43.73
53.47
57.63
57.3
53.85
49.71
47.02
46.72
48.79
51.07
51.47
47.54
38.68
24.88
7.38
-11.74
-30.28
-44.99
-53.6
-54.11
-46.96
-33.61
-16.92
0.07
15.07
25.99
32.4
34.0
32.11
28.13
24.46
23.01
24.43
28.2
31.59
32.05
27.04
16.32
0.61
-18.04
-37.01
-54.04
-66.23
-71.87
-69.39
-59.44
-43.41
-24.09
-4.49
12.97
26.01
34.1
36.99
36.15
33.14
30.46
30.05
32.42
36.9
40.56
40.72
34.8
22.62
5.08
-15.58
-36.63
-55.77
-70.18
-78.27
-78.62
-71.9
-59.58
-44.46
-29.46
-16.66
-7.66
-2.08
0.62
2.3
4.26
8.25
15.18
24.73
35.6
44.58
48.92
46.09
36.11
20.19
0.93
-18.71
-36.47
-49.93
-58.08
-59.98
-56.53
-49.07
-40.08
-32.04
-26.49
-24.3
-24.29
-25.16
-24.61
-21.32
-14.0
-2.37
12.5
28.7
42.57
51.1
51.65
44.38
30.75
13.67
-3.83
-19.63
-31.8
-39.85
-43.3
-43.18
-40.63
-37.9
-36.99
-38.85
-43.47
-48.65
-52.14
-51.26
-45.1
-33.41
-17.22
1.48
20.5
36.63
47.54
51.17
47.8
38.6
26.1
12.98
1.12
-7.69
-13.28
-15.5
-15.54
-14.45
-14.02
-15.63
-19.67
-25.78
-31.77
-35.58
-34.7
-28.38
-16.39
0.19
19.4
38.96
55.53
66.82
70.84
68.05
59.86
49.03
38.25
29.15
22.8
18.48
15.55
12.41
8.21
1.78
-7.41
-18.92
-31.6
-42.54
-49.23
-49.04
-41.64
-27.69
-9.35
10.68
30.02
45.98
57.25
62.72
63.27
60.24
56.18
53.32
52.73
54.47
56.5
56.92
53.36
45.2
32.24
15.45
-3.31
-21.96
-37.2
-46.64
-48.09
-41.87
-29.36
-13.38
3.04
17.62
28.24
34.44
35.86
33.79
29.63
25.75
24.13
25.47
29.32
32.96
33.84
29.29
18.93
3.26
-15.77
-35.63
-53.96
-67.78
-75.23
-74.69
-66.8
-53.04
-36.28
-19.52
-4.97
5.53
12.0
14.61
15.04
14.69
15.66
19.34
25.8
33.98
40.72
43.2
38.83
27.59
10.67
-9.32
-29.45
-47.41
-60.65
-68.0
-68.36
-62.56
-51.96
-39.19
-26.9
-16.97
-10.71
-7.46
-6.36
-5.34
-3.03
2.2
11.02
22.84
36.15
47.58
54.32
53.78
45.98
32.07
14.6
-3.63
-20.51
-33.8
-42.59
-46.0
-44.84
-40.25
-34.47
-29.74
-27.36
-28.0
-30.31
-32.86
-33.29
-30.38
-22.95
-10.93
4.51
21.42
36.2
45.93
48.02
42.57
30.88
15.67
-0.19
-14.65
-25.73
-32.91
-35.6
-34.79
-31.58
-28.11
-26.36
-27.29
-31.06
-35.75
-39.41
-39.49
-34.99
-25.29
-11.02
6.17
24.18
39.59
49.84
52.61
48.09
37.51
23.44
8.65
-4.81
-14.96
-21.28
-23.28
-22.04
-18.76
-15.6
-14.47
-16.23
-20.86
-26.31
-30.53
-30.97
-26.68
-17.16
-3.13
13.69
31.2
46.06
55.79
58.17
53.44
42.85
28.99
14.61
1.62
-8.21
-14.68
-17.52
-17.88
-16.73
-15.86
-16.71
-19.83
-25.07
-30.39
-33.92
-33.23
-27.53
-16.46
-0.94
17.12
35.45
50.66
60.35
62.49
57.51
46.87
33.36
19.77
7.9
-0.78
-6.55
-9.55
-11.15
-12.25
-14.32
-18.33
-24.31
-31.62
-37.83
-40.81
-38.21
-29.66
-15.57
2.31
21.5
39.65
53.71
61.94
62.86
57.23
46.55
33.55
20.91
10.28
2.78
-2.32
-5.74
-9.1
-13.12
-18.73
-26.14
-34.76
-43.68
-50.58
-53.65
-50.85
-42.01
-27.54
-9.14
10.79
29.89
45.14
54.81
57.44
53.82
45.45
35.03
25.14
17.31
12.44
9.56
7.77
5.24
1.17
-5.4
-14.61
-25.72
-37.51
-47.32
-53.03
-52.47
-45.56
-32.92
-16.45
1.47
18.77
32.88
42.39
45.98
44.18
38.04
29.88
22.08
16.2
13.25
12.25
12.06
10.46
6.21
-1.91
-14.0
-28.84
-44.42
-57.11
-64.01
-62.68
-53.43
-37.97
-19.55
-1.59
13.58
24.11
29.95
31.44
30.0
26.83
23.4
20.51
17.74
14.08
7.18
-3.95
-19.04
-34.54
-45.8
-48.37
-39.97
-22.07
1.72
26.03
46.8
60.79
67.14
66.24
59.65
49.98
39.57
31.17
25.74
23.66
23.62
24.45
25.39
25.8
25.17
21.73
13.71
-0.45
-19.59
-40.8
-59.73
-72.79
-79.21
-79.88
-77.46
-73.2
-67.22
-57.7
-42.98
-22.82
0.86
23.78
42.25
53.46
58.0
58.25
58.14
60.52
65.55
71.14
72.76
67.01
52.04
29.77
3.84
-21.42
-42.63
-58.52
-68.38
-72.58
-70.54
-62.46
-48.31
-29.44
-8.39
11.87
27.74
37.5
40.35
38.01
32.74
27.71
25.15
25.65
28.77
32.15
33.89
31.95
26.03
16.1
2.96
-12.02
-27.4
-40.54
-49.41
-51.85
-47.71
-37.61
-23.51
-7.85
7.25
19.32
27.25
30.08
28.67
24.35
19.55
16.44
16.01
18.29
21.13
22.49
19.94
12.83
1.04
-14.34
-31.33
-47.79
-60.5
-67.18
-65.82
-56.83
-41.66
-23.13
-4.31
12.51
25.13
33.08
35.95
34.99
31.59
28.04
26.25
26.94
29.79
32.32
32.24
27.13
16.67
1.38
-16.98
-35.92
-53.16
-65.65
-71.49
-69.01
-58.84
-42.53
-22.98
-3.32
14.02
26.79
34.48
36.8
35.18
31.17
27.24
25.37
26.17
29.13
31.52
30.88
24.79
13.16
-3.16
-22.05
-40.89
-57.49
-69.05
-73.94
-70.65
-59.81
-42.79
-22.35
-1.56
17.03
30.93
39.4
42.01
40.22
35.75
31.34
29.18
30.02
33.28
36.06
35.66
29.46
17.31
0.11
-19.82
-39.74
-57.27
-69.63
-75.3
-72.95
-63.42
-48.36
-30.73
-13.53
1.2
12.05
19.57
24.45
28.39
32.3
37.29
43.77
51.26
58.88
64.24
65.51
60.67
49.72
33.28
13.27
-7.77
-27.49
-42.91
-52.36
-54.45
-49.97
-40.36
-28.33
-16.56
-6.95
-1.18
0.79
-0.82
-4.22
-7.65
-8.47
-4.79
3.76
15.94
28.02
36.47
38.09
32.59
21.1
6.24
-9.22
-23.35
-34.1
-40.65
-41.96
-38.61
-31.54
-22.91
-15.05
-9.59
-7.56
-7.95
-9.53
-9.95
-7.81
-1.71
8.61
22.11
36.95
49.6
57.26
57.4
50.12
36.6
19.42
1.38
-15.48
-28.97
-38.3
-42.69
-42.99
-40.28
-36.71
-34.31
-34.2
-36.83
-40.68
-44.22
-45.08
-42.11
-34.29
-21.69
-5.53
12.25
28.17
39.41
43.41
40.18
30.84
17.87
3.99
-8.87
-18.68
-24.88
-26.8
-25.37
-21.64
-17.74
-15.58
-16.2
-19.84
-24.75
-29.14
-30.48
-27.64
-19.69
-6.93
9.18
26.56
41.63
51.59
53.96
48.92
37.75
23.17
8.0
-5.74
-16.11
-22.67
-24.93
-23.94
-20.84
-17.77
-16.66
-18.37
-22.91
-28.2
-32.17
-32.23
-27.51
-17.59
-3.3
13.55
30.84
45.24
54.36
56.0
50.42
38.83
23.76
7.99
-6.47
-17.55
-24.69
-27.39
-26.69
-23.8
-20.87
-19.84
-21.61
-26.32
-32.08
-37.02
-38.62
-35.8
-27.77
-14.89
1.34
18.9
34.3
44.82
47.99
43.9
33.72
20.03
5.55
-7.72
-17.82
-24.27
-26.53
-25.66
-22.85
-20.34
-20.11
-23.01
-28.89
-35.37
-40.1
-40.28
-35.02
-24.06
-8.5
9.69
28.32
44.15
54.9
58.48
55.19
46.24
34.19
21.72
10.66
2.53
-2.88
-5.71
-7.38
-8.83
-11.61
-16.69
-24.01
-32.74
-40.2
-43.96
-41.4
-31.98
-16.0
4.82
28.04
51.27
71.46
86.81
95.76
98.92
97.64
94.57
92.1
91.42
92.83
94.53
94.82
91.45
83.61
70.81
53.57
33.41
12.31
-6.33
-19.78
-25.54
-23.68
-15.43
-3.53
9.04
20.14
27.82
31.77
31.78
29.14
25.2
22.23
22.04
25.12
30.71
35.82
37.59
33.26
22.5
6.08
-13.84
-34.55
-53.74
-68.55
-77.28
-78.37
-72.35
-60.45
-45.27
-29.65
-15.84
-5.94
-0.26
1.16
-0.02
-2.09
-2.52
0.56
7.45
17.03
25.8
30.57
28.35
18.89
3.2
-16.26
-36.72
-56.06
-71.81
-82.75
-87.61
-86.94
-81.86
-74.75
-68.1
-63.55
-62.07
-62.56
-63.73
-63.2
-59.57
-51.4
-38.36
-21.44
-2.62
14.36
26.36
30.61
27.14
17.3
3.88
-10.2
-22.97
-32.6
-38.77
-41.06
-40.46
-38.06
-35.89
-35.81
-38.64
-44.35
-50.77
-55.76
-56.55
-52.11
-41.85
-26.5
-7.8
12.15
29.96
43.1
49.24
48.43
41.69
31.4
20.13
9.76
2.19
-2.14
-2.81
-0.94
2.25
4.55
4.09
0.22
-6.67
-14.0
-19.27
-19.66
-14.31
-3.09
12.79
31.29
50.25
66.49
77.79
82.15
79.84
72.07
61.42
50.56
41.23
34.73
30.54
28.13
25.85
22.67
17.17
8.62
-2.61
-15.34
-26.57
-33.64
-33.88
-26.91
-13.36
4.65
24.48
43.85
60.11
72.0
78.39
80.09
78.41
75.82
74.51
75.46
78.62
81.8
82.93
79.53
70.92
56.97
38.74
18.11
-2.79
-20.73
-33.27
-38.17
-35.6
-26.77
-14.39
-1.38
10.05
17.88
21.8
21.63
18.81
14.85
12.18
12.67
16.65
23.0
28.18
28.93
22.27
8.12
-12.25
-36.04
-60.16
-82.28
-99.79
-111.44
-115.97
-113.98
-106.69
-96.63
-86.54
-78.44
-73.8
-71.96
-71.95
-71.4
-68.59
-61.52
-49.31
-32.63
-13.44
4.22
16.86
21.43
17.98
8.02
-5.41
-19.29
-31.66
-40.85
-46.66
-48.71
-48.02
-45.63
-43.69
-44.11
-47.67
-53.96
-60.14
-63.39
-60.57
-50.89
-34.57
-13.38
10.19
33.75
54.24
69.72
78.36
80.52
77.34
71.34
65.09
60.3
58.08
57.57
57.83
56.83
53.36
46.04
34.46
19.61
3.46
-10.13
-17.93
-17.16
-8.0
7.89
27.28
46.88
64.38
77.76
86.63
90.61
90.8
88.49
85.96
85.23
87.05
90.89
93.85
93.07
85.69
71.3
50.69
26.08
0.26
-24.42
-45.1
-60.1
-67.78
-68.54
-63.48
-55.05
-45.97
-38.39
-34.18
-33.38
-35.69
-39.12
-41.81
-41.12
-35.36
-24.56
-10.43
2.9
11.63
12.48
5.28
-8.54
-26.04
-44.24
-61.18
-74.95
-84.96
-90.44
-92.04
-90.64
-88.29
-87.07
-88.15
-91.81
-96.14
-99.09
-97.86
-91.31
-78.76
-60.85
-39.36
-16.43
4.46
20.7
29.87
31.99
28.07
20.47
11.77
3.82
-1.55
-4.0
-3.2
-0.35
3.33
5.67
4.94
0.58
-6.83
-14.62
-20.2
-20.72
-15.36
-4.06
11.87
30.37
49.27
65.44
76.74
81.17
79.04
71.48
61.04
50.29
40.94
34.26
29.74
26.86
24.02
20.25
14.22
5.27
-6.22
-19.13
-30.59
-38.11
-39.08
-33.07
-20.59
-3.54
15.58
34.47
50.37
61.79
67.45
68.04
64.84
60.29
56.63
54.99
55.71
57.12
57.68
55.19
48.87
38.17
23.52
6.33
-11.55
-26.89
-37.18
-40.04
-35.52
-24.7
-10.12
5.42
19.73
30.61
37.41
39.56
38.15
34.5
30.91
29.38
30.66
34.46
38.34
39.97
36.82
28.36
14.8
-2.33
-20.77
-38.26
-51.65
-58.83
-57.92
-49.43
-34.79
-16.84
1.4
17.64
29.74
37.31
40.11
39.53
37.03
35.04
35.46
38.84
44.45
49.31
50.65
45.74
34.32
17.18
-3.49
-25.03
-45.17
-61.08
-71.09
-73.6
-69.07
-58.73
-45.15
-31.18
-19.04
-10.69
-6.26
-5.56
-6.78
-8.15
-7.19
-2.21
6.84
18.46
28.79
34.29
31.83
21.32
4.11
-16.89
-38.69
-59.14
-76.14
-88.88
-96.43
-99.42
-98.79
-96.69
-95.3
-95.96
-99.22
-103.49
-106.94
-106.92
-102.06
-91.29
-74.81
-54.05
-31.14
-9.73
7.25
17.11
19.8
16.36
9.26
1.1
-6.32
-11.28
-13.54
-12.78
-10.12
-6.74
-4.73
-5.85
-10.62
-18.41
-26.37
-31.72
-31.44
-24.75
-11.71
6.17
26.62
47.42
65.5
78.81
85.45
85.7
80.63
72.7
64.38
57.33
52.71
49.87
48.13
45.75
41.73
34.74
24.25
10.83
-4.17
-17.67
-27.03
-29.6
-25.04
-14.02
1.36
18.53
35.27
48.99
58.42
62.45
61.83
57.8
52.71
48.74
46.94
47.55
48.73
48.79
45.43
37.94
25.9
10.03
-8.05
-26.33
-41.5
-51.06
-52.74
-46.76
-34.44
-18.57
-2.18
12.42
23.07
29.22
30.5
28.18
23.69
19.42
17.31
18.02
21.03
23.63
23.34
17.72
6.61
-9.19
-27.59
-45.98
-62.15
-73.32
-77.87
-74.3
-63.28
-46.16
-25.63
-4.75
14.04
28.27
37.2
40.39
39.23
35.27
31.05
28.59
28.7
31.2
33.81
34.48
30.86
22.47
9.4
-7.1
-25.03
-42.33
-55.87
-63.5
-63.24
-55.51
-41.67
-24.46
-6.85
8.85
20.43
27.27
28.91
26.56
21.61
16.48
13.2
12.61
14.56
16.71
16.86
12.61
3.51
-10.16
-26.85
-44.3
-60.3
-71.74
-76.63
-73.21
-62.1
-44.82
-24.27
-3.56
14.89
28.74
37.35
40.25
38.71
34.19
29.12
25.6
24.53
25.86
27.43
27.2
22.83
13.84
0.36
-16.26
-33.88
-50.32
-62.43
-68.09
-65.43
-55.02
-38.42
-18.53
1.52
19.33
32.62
40.77
43.31
41.51
36.78
31.55
27.92
26.81
28.09
29.54
29.03
24.17
14.54
0.41
-16.7
-34.53
-50.84
-62.52
-67.54
-64.14
-52.97
-35.57
-14.9
5.91
24.42
38.35
47.07
50.14
48.87
44.67
40.01
36.95
36.38
38.17
40.01
39.75
34.97
25.23
10.77
-6.92
-25.6
-43.04
-56.12
-62.8
-61.23
-51.98
-36.56
-17.84
1.1
17.89
30.27
37.73
39.87
38.03
33.67
29.24
26.73
26.91
29.41
31.69
31.4
26.08
15.45
0.09
-18.16
-36.85
-53.73
-65.86
-71.41
-68.77
-58.54
-42.18
-22.5
-2.57
15.18
28.42
36.52
39.09
37.5
33.28
28.91
26.42
26.56
29.05
31.41
31.4
26.61
16.74
2.16
-15.46
-33.84
-50.8
-63.35
-69.54
-67.63
-58.17
-42.57
-23.62
-4.39
12.73
25.42
33.07
35.24
33.27
28.67
23.91
21.05
20.86
23.06
25.2
25.03
20.15
10.26
-4.19
-21.51
-39.35
-55.52
-67.06
-72.08
-68.9
-58.13
-41.21
-20.95
-0.43
17.93
31.79
40.43
43.41
41.98
37.62
32.78
29.55
28.85
30.6
32.62
32.86
28.95
20.34
7.11
-9.5
-27.4
-44.41
-57.37
-64.06
-62.58
-53.43
-38.1
-19.48
-0.65
16.07
28.45
35.96
38.14
36.24
31.67
26.83
23.77
23.31
25.28
27.27
27.07
22.22
12.36
-2.13
-19.59
-37.66
-54.06
-65.74
-70.76
-67.39
-56.3
-39.02
-18.46
2.25
20.65
34.45
43.03
46.01
44.74
40.71
36.4
33.84
33.86
36.16
38.33
38.1
33.06
22.86
7.9
-10.15
-28.96
-46.32
-59.26
-65.82
-64.27
-55.18
-39.97
-21.42
-2.57
14.2
26.62
34.08
36.19
34.24
29.73
25.1
22.37
22.32
24.68
27.03
27.12
22.54
12.94
-1.3
-18.54
-36.47
-52.87
-64.71
-70.03
-67.1
-56.5
-39.74
-19.66
0.62
18.68
32.21
40.62
43.5
42.18
38.17
33.94
31.55
31.77
34.3
36.67
36.56
31.54
21.26
6.18
-11.99
-30.88
-48.3
-61.27
-67.89
-66.45
-57.52
-42.49
-24.13
-5.46
11.18
23.49
30.85
32.86
30.82
26.21
21.46
18.59
18.41
20.66
23.0
23.23
18.98
9.85
-3.84
-20.53
-37.97
-53.93
-65.34
-70.19
-66.71
-55.48
-38.04
-17.32
3.55
22.13
36.11
44.89
48.08
47.02
43.2
39.13
36.85
37.16
39.73
42.03
41.71
36.29
25.47
9.77
-9.02
-28.5
-46.44
-59.92
-67.1
-66.29
-58.07
-43.78
-26.14
-8.12
7.92
19.7
26.59
28.18
25.79
20.88
15.89
12.82
12.46
14.58
16.87
17.19
13.16
4.4
-8.83
-25.05
-42.04
-57.63
-68.69
-73.18
-69.29
-57.62
-39.71
-18.54
2.74
21.66
35.93
44.91
48.22
47.16
43.25
38.99
36.45
36.47
38.74
40.74
40.16
34.53
23.58
7.85
-10.84
-30.05
-47.57
-60.47
-66.94
-65.34
-56.26
-41.08
-22.55
-3.67
13.19
25.69
33.18
35.21
33.09
28.3
23.28
20.05
19.46
21.36
23.52
23.87
20.04
11.56
-1.47
-17.69
-35.01
-51.24
-63.23
-68.82
-66.12
-55.68
-39.04
-19.13
0.93
18.74
32.06
40.33
43.11
41.69
37.51
33.01
30.26
30.07
32.2
34.18
33.68
28.25
17.59
2.17
-16.2
-35.08
-52.22
-64.62
-70.42
-67.96
-57.87
-41.65
-22.12
-2.38
15.15
28.12
35.95
38.23
36.33
31.79
27.07
24.21
23.96
26.07
28.08
27.78
22.8
12.84
-1.65
-19.0
-36.89
-53.13
-64.74
-69.79
-66.6
-55.75
-38.73
-18.36
2.24
20.63
34.46
43.07
46.03
44.65
40.44
35.91
33.1
32.87
35.01
37.13
37.04
32.31
22.55
8.07
-9.58
-28.15
-45.47
-58.51
-65.26
-63.94
-55.09
-40.11
-21.77
-3.09
13.56
25.92
33.36
35.43
33.41
28.74
23.86
20.8
20.42
22.51
24.78
25.07
20.97
12.07
-1.43
-18.03
-35.52
-51.72
-63.52
-68.88
-66.0
-55.45
-38.74
-18.72
1.51
19.59
33.21
41.77
44.79
43.54
39.45
34.96
32.17
31.95
34.16
36.48
36.68
32.27
22.78
8.41
-9.35
-28.24
-46.03
-59.56
-66.76
-65.81
-57.27
-42.66
-24.88
-6.98
8.73
20.22
27.19
29.48
28.55
25.85
23.69
23.93
27.09
32.62
37.72
39.81
36.29
26.84
12.12
-5.83
-24.46
-41.54
-54.3
-61.13
-60.59
-53.37
-40.81
-25.6
-10.57
2.23
11.03
15.94
17.24
16.69
15.76
16.58
20.56
27.79
37.3
46.01
51.16
50.03
42.31
28.73
11.39
-7.15
-24.78
-38.94
-48.27
-51.5
-49.28
-42.81
-34.53
-26.87
-21.42
-19.17
-19.21
-20.51
-20.98
-19.29
-13.95
-4.35
8.83
24.01
37.72
47.06
49.3
44.3
33.13
18.26
2.44
-12.26
-23.66
-30.94
-33.27
-31.51
-26.78
-21.31
-17.21
-15.69
-17.24
-20.35
-23.46
-24.17
-21.3
-13.76
-1.63
13.81
30.54
44.96
54.21
55.77
49.81
37.67
22.11
6.03
-8.54
-19.62
-26.67
-29.1
-27.88
-24.06
-19.75
-16.93
-16.67
-19.36
-23.38
-27.06
-27.97
-24.98
-17.18
-4.84
10.62
27.27
41.66
51.18
53.43
48.55
37.66
23.2
7.88
-6.38
-17.47
-24.71
-27.39
-26.35
-22.66
-18.4
-15.54
-15.18
-17.8
-21.93
-26.06
-27.84
-26.06
-19.6
-8.45
6.23
22.56
37.02
46.81
49.37
44.68
33.87
19.43
4.05
-10.27
-21.45
-28.82
-31.66
-30.88
-27.59
-23.97
-22.01
-22.74
-26.33
-30.95
-34.73
-35.17
-31.25
-22.28
-8.79
7.67
25.02
39.82
49.44
51.55
46.33
35.03
20.25
4.77
-9.38
-20.2
-27.14
-29.67
-28.79
-25.62
-22.3
-20.77
-22.0
-26.23
-31.64
-36.41
-37.99
-35.25
-27.28
-14.42
1.86
19.48
34.83
45.15
47.95
43.39
32.74
18.68
4.0
-9.32
-19.41
-25.86
-28.24
-27.58
-25.02
-22.7
-22.49
-25.19
-30.68
-36.73
-41.12
-41.2
-36.08
-25.46
-10.32
7.47
25.78
41.35
51.82
55.03
51.15
41.29
27.89
13.64
0.58
-9.25
-15.3
-17.14
-15.9
-12.9
-10.4
-10.32
-13.39
-19.39
-25.96
-30.83
-31.31
-26.56
-16.25
-1.36
16.26
34.53
50.21
60.99
64.72
61.62
52.85
40.91
28.44
17.27
9.01
3.6
1.05
0.03
-0.42
-1.93
-5.66
-11.77
-19.79
-27.43
-32.64
-32.99
-27.82
-17.04
-1.89
15.59
33.16
47.64
56.95
59.29
55.18
45.98
34.3
22.73
12.92
6.1
1.83
-0.3
-1.72
-3.25
-6.13
-11.01
-17.71
-25.51
-32.13
-35.65
-33.9
-26.52
-13.75
2.88
21.11
38.65
52.45
60.68
61.76
56.4
46.02
33.3
20.87
10.4
3.16
-1.35
-3.59
-5.07
-6.6
-9.35
-13.88
-19.92
-26.85
-32.55
-35.34
-33.22
-25.89
-13.46
2.69
20.46
37.64
51.15
59.06
59.75
53.88
42.89
29.42
16.14
4.81
-3.09
-7.77
-9.37
-9.22
-8.15
-7.47
-8.04
-9.96
-13.05
-15.62
-16.38
-13.49
-6.52
4.79
19.6
36.12
52.22
64.57
70.85
69.1
59.86
44.62
26.15
7.39
-9.48
-22.3
-30.36
-33.07
-31.41
-26.59
-20.83
-16.19
-13.85
-14.35
-16.32
-18.34
-18.2
-14.82
-7.2
4.58
19.27
34.91
47.92
55.5
55.18
47.19
32.96
15.27
-2.88
-19.37
-32.04
-40.18
-43.03
-41.45
-36.49
-30.3
-25.03
-22.06
-22.2
-24.26
-26.97
-27.97
-25.9
-19.35
-8.06
6.86
23.33
37.5
46.23
46.86
39.6
26.01
9.08
-8.15
-23.57
-35.22
-42.61
-45.14
-43.72
-39.44
-34.42
-30.72
-29.49
-31.07
-33.72
-35.66
-34.38
-28.9
-18.56
-3.93
13.33
31.1
45.97
55.4
57.15
51.5
39.76
24.57
8.79
-5.53
-16.26
-22.75
-24.36
-22.08
-17.04
-11.39
-7.15
-5.46
-6.86
-9.94
-13.27
-14.52
-12.47
-5.96
5.1
19.49
35.22
48.58
56.61
56.75
49.22
35.49
18.41
0.98
-14.74
-26.74
-34.43
-37.19
-35.88
-31.58
-26.44
-22.53
-21.08
-22.59
-25.52
-28.22
-28.28
-24.62
-16.41
-4.07
10.87
26.37
39.03
46.32
46.08
38.67
25.47
9.12
-7.52
-22.42
-33.47
-40.01
-41.34
-38.38
-32.23
-24.98
-18.76
-14.93
-14.41
-16.32
-19.69
-22.48
-23.56
-21.69
-16.58
-8.97
-0.13
7.25
11.19
9.73
3.01
-8.23
-22.11
-36.34
-48.96
-57.46
-60.5
-56.86
-47.26
-32.95
-16.38
-0.14
13.7
23.1
27.61
26.92
22.4
15.43
8.27
2.73
-0.4
-1.07
-1.15
-2.25
-6.42
-14.13
-25.52
-39.63
-54.64
-68.43
-77.7
-80.12
-73.72
-59.14
-38.15
-13.93
10.15
31.5
47.74
58.12
62.07
60.77
55.62
49.15
43.6
40.15
39.04
38.33
36.12
30.14
19.86
5.36
-12.07
-30.26
-46.98
-59.03
-64.25
-60.82
-49.42
-31.73
-10.77
10.21
28.76
42.54
50.86
53.22
50.83
45.08
38.4
32.94
29.77
29.07
28.92
27.47
22.46
13.32
0.02
-16.29
-33.57
-49.61
-61.17
-66.02
-62.26
-50.53
-32.52
-11.27
9.99
28.82
42.93
51.69
54.62
52.9
47.92
42.08
37.53
35.26
35.34
35.69
34.32
28.9
19.0
4.85
-12.08
-29.61
-45.68
-57.41
-63.03
-60.88
-51.5
-36.13
-17.27
2.26
20.18
34.1
43.14
46.6
45.51
41.13
35.68
31.21
28.74
28.75
29.81
30.65
29.34
25.35
18.32
8.86
-1.79
-12.43
-20.83
-25.6
-25.05
-19.19
-8.31
6.2
22.24
37.73
49.81
56.79
57.26
51.94
42.16
30.44
19.22
10.1
4.38
1.72
1.85
3.38
5.5
6.99
7.15
5.99
3.75
2.06
2.11
5.57
12.75
23.87
38.05
53.56
68.29
78.97
83.38
79.61
68.31
50.99
30.5
9.8
-8.88
-23.23
-32.42
-35.65
-33.83
-28.12
-20.77
-13.99
-9.28
-7.65
-8.24
-10.04
-10.92
-9.54
-4.32
5.16
17.93
31.87
43.05
48.21
44.75
33.1
15.1
-6.01
-27.07
-46.03
-61.03
-71.61
-77.05
-78.01
-75.16
-70.28
-65.41
-62.16
-61.88
-64.12
-68.23
-72.22
-74.82
-74.46
-70.64
-63.95
-55.79
-49.06
-46.01
-48.68
-56.95
-69.72
-84.55
-98.77
-109.8
-115.3
-114.17
-105.89
-92.18
-75.31
-58.7
-45.27
-36.93
-34.11
-35.23
-38.03
-39.04
-36.02
-27.26
-12.94
5.58
26.19
46.19
63.48
75.75
82.18
82.11
76.4
66.73
55.51
45.21
37.37
32.65
29.62
26.77
21.86
13.91
2.3
-12.46
-28.54
-43.62
-54.01
-57.05
-50.74
-35.94
-14.8
9.28
32.82
53.51
69.25
79.51
83.7
82.73
77.64
70.56
63.68
58.39
55.56
54.0
52.44
48.85
42.59
33.39
22.04
10.11
-0.94
-8.84
-12.29
-9.9
-2.0
10.8
26.83
43.86
59.77
71.69
78.05
77.5
70.82
59.35
45.53
31.85
20.03
11.68
6.86
5.64
6.8
9.44
12.0
13.37
13.16
11.24
9.06
7.72
9.02
13.59
22.07
34.04
48.07
62.15
72.84
77.57
74.17
63.09
45.88
25.42
4.74
-13.9
-28.26
-37.52
-40.9
-39.27
-33.76
-26.62
-20.07
-15.63
-14.28
-15.06
-16.86
-17.49
-15.57
-9.61
0.73
14.41
29.31
41.53
47.92
45.85
35.72
19.28
-0.37
-20.07
-37.76
-51.49
-60.74
-64.8
-64.4
-60.37
-54.63
-49.31
-45.89
-45.52
-47.46
-50.75
-53.3
-53.87
-51.18
-44.97
-36.14
-26.06
-17.5
-12.43
-12.73
-18.23
-28.15
-40.66
-53.48
-64.74
-71.91
-73.68
-68.8
-58.0
-42.51
-24.74
-7.31
7.67
18.05
23.23
22.74
17.9
10.16
1.97
-4.63
-8.67
-9.99
-10.44
-11.67
-15.78
-23.3
-34.38
-48.06
-62.47
-75.48
-83.79
-85.1
-77.5
-61.75
-39.66
-14.47
10.45
32.58
49.54
60.57
65.01
63.9
58.48
51.05
43.92
38.51
35.67
34.26
33.06
30.11
24.67
16.25
5.44
-6.28
-17.3
-24.94
-27.43
-23.15
-12.49
3.54
22.8
42.72
61.12
75.32
83.98
85.88
81.78
72.88
61.51
50.09
40.32
33.72
30.1
29.31
29.92
31.08
31.51
30.51
28.14
24.63
21.61
20.16
21.92
27.23
36.38
48.62
62.32
75.43
84.62
87.57
82.33
69.49
50.62
28.62
6.51
-13.46
-28.97
-39.22
-43.43
-42.51
-37.62
-31.02
-24.9
-20.74
-19.51
-20.27
-21.96
-22.45
-20.41
-14.36
-3.87
10.09
25.52
38.57
46.06
45.28
36.48
21.28
2.72
-16.05
-32.88
-45.72
-53.95
-56.86
-55.24
-50.13
-43.67
-38.06
-34.71
-34.4
-35.88
-37.73
-37.58
-34.24
-26.65
-14.97
-0.6
14.41
26.52
33.11
31.99
23.61
9.57
-7.3
-24.0
-38.49
-48.66
-53.91
-53.57
-48.57
-39.99
-30.01
-20.85
-14.06
-10.89
-10.7
-12.74
-15.07
-16.46
-15.47
-11.58
-5.37
2.07
8.06
10.68
7.97
0.08
-12.27
-27.21
-42.43
-55.93
-65.1
-68.51
-64.83
-54.81
-39.77
-22.27
-5.05
9.74
20.03
25.35
25.44
21.66
15.39
8.89
3.92
1.22
0.75
0.57
-1.0
-5.96
-14.68
-27.11
-42.06
-57.57
-71.51
-80.7
-82.97
-76.5
-61.99
-41.15
-17.1
6.84
28.12
44.29
54.55
58.26
56.58
50.9
43.72
37.35
33.03
31.2
30.19
28.3
23.31
14.53
1.69
-14.28
-31.46
-47.6
-59.31
-64.18
-60.26
-48.21
-29.87
-8.4
12.87
31.54
45.39
53.84
56.38
54.13
48.37
41.38
35.32
31.32
29.76
28.92
27.12
22.19
13.63
1.44
-13.21
-28.39
-42.23
-51.98
-55.9
-52.38
-41.86
-25.44
-5.42
15.46
34.91
50.31
60.5
64.53
63.31
58.15
51.38
45.2
40.84
39.02
38.64
38.69
37.36
34.01
28.04
19.66
9.83
-0.39
-8.8
-13.89
-13.91
-8.81
1.12
14.45
29.09
42.99
53.29
58.31
56.62
48.93
36.57
22.01
7.77
-4.41
-12.96
-17.86
-19.11
-17.99
-15.41
-12.93
-11.67
-12.04
-14.15
-16.58
-18.17
-17.03
-12.43
-3.57
9.28
24.74
40.77
53.85
61.28
60.73
52.57
38.29
20.73
2.85
-13.2
-25.35
-32.96
-35.39
-33.59
-28.68
-22.83
-18.14
-15.81
-16.38
-18.41
-20.4
-20.01
-16.17
-7.93
4.5
19.75
35.77
49.02
56.71
56.45
48.5
34.33
16.74
-1.27
-17.55
-29.92
-37.72
-40.25
-38.45
-33.43
-27.39
-22.43
-19.83
-20.24
-22.35
-24.74
-25.1
-22.17
-14.73
-2.72
12.69
29.47
43.91
53.07
54.38
48.05
35.51
19.6
3.27
-11.41
-22.39
-29.09
-30.82
-28.46
-23.07
-16.78
-11.69
-9.05
-9.47
-11.52
-13.7
-13.64
-10.2
-2.35
9.69
24.54
40.08
52.66
59.5
58.21
49.16
33.9
15.36
-3.44
-20.35
-33.28
-41.63
-44.73
-43.48
-38.94
-33.24
-28.48
-25.98
-26.44
-28.64
-31.22
-31.87
-29.41
-22.7
-11.73
2.29
17.45
30.32
38.21
38.77
32.2
19.76
4.01
-12.31
-27.2
-38.51
-45.51
-47.38
-44.94
-39.22
-32.35
-26.45
-22.87
-22.51
-24.4
-27.49
-29.68
-29.86
-26.8
-20.27
-11.08
-0.53
8.6
14.26
14.42
9.15
-0.83
-13.63
-26.91
-38.74
-46.59
-49.21
-45.41
-35.98
-22.21
-6.53
8.48
20.92
29.0
32.58
31.63
27.66
21.98
16.61
13.03
11.66
12.18
12.46
10.7
4.9
-5.14
-19.15
-35.7
-52.66
-67.91
-78.35
-82.0
-77.11
-64.39
-45.45
-23.27
-1.07
18.63
33.42
42.54
45.43
43.3
37.62
30.86
25.23
21.82
20.88
20.55
19.06
14.22
5.49
-7.23
-22.85
-39.4
-54.72
-65.56
-69.66
-65.12
-52.53
-33.63
-11.47
10.67
30.29
45.04
54.2
57.21
55.24
49.66
42.93
37.27
33.82
32.86
32.52
30.99
25.98
16.88
3.59
-12.79
-30.22
-46.5
-58.31
-63.36
-59.75
-48.11
-30.17
-9.01
12.11
30.76
44.69
53.27
56.03
54.14
48.99
42.96
38.18
35.69
35.61
35.94
34.73
29.66
20.22
6.53
-10.1
-27.56
-43.71
-55.53
-61.03
-58.45
-48.36
-32.14
-12.51
7.54
25.68
39.57
48.43
51.66
50.39
45.93
40.61
36.48
34.52
34.94
35.94
35.83
32.42
25.13
13.78
-0.76
-16.84
-32.79
-45.88
-54.23
-55.9
-50.96
-40.12
-25.33
-9.04
6.62
19.11
27.3
30.19
28.69
24.06
18.6
14.37
12.36
12.83
14.18
14.96
13.17
8.25
-0.16
-11.46
-24.29
-37.14
-47.33
-52.9
-51.83
-44.14
-30.54
-13.05
5.75
23.58
37.76
46.97
50.19
48.35
42.86
36.25
30.75
27.51
26.9
27.3
27.27
24.75
19.12
10.0
-2.05
-15.71
-29.49
-40.73
-47.5
-47.77
-41.53
-29.42
-13.33
4.29
21.31
35.18
44.64
48.63
47.97
43.85
38.54
34.15
31.81
32.15
33.93
35.99
36.27
33.81
27.55
17.3
3.82
-11.73
-26.62
-38.67
-45.4
-46.29
-41.4
-32.09
-20.34
-8.03
2.29
9.26
11.58
9.92
5.41
0.33
-3.27
-4.46
-3.05
-0.73
0.98
0.04
-4.16
-12.05
-23.07
-35.92
-49.12
-59.91
-66.3
-66.15
-59.42
-46.73
-30.09
-12.0
5.31
19.2
28.47
32.08
30.98
26.46
20.92
16.47
14.18
14.43
15.69
16.61
15.22
10.89
3.16
-7.51
-19.91
-32.65
-43.12
-49.42
-49.51
-43.35
-31.47
-15.71
1.52
18.03
31.15
39.52
42.0
39.45
33.22
25.75
19.29
15.02
13.49
13.34
13.38
11.68
7.59
0.51
-9.28
-20.73
-32.56
-42.22
-47.83
-47.37
-40.77
-28.6
-12.7
4.5
20.77
33.38
40.93
42.25
38.23
30.27
20.91
12.51
6.37
3.18
1.78
1.09
-0.72
-4.29
-10.26
-18.45
-27.92
-37.54
-44.92
-48.37
-45.98
-37.75
-24.2
-7.11
11.15
28.35
41.63
49.47
50.57
45.77
36.47
25.2
14.44
5.7
0.11
-2.98
-4.14
-4.95
-6.21
-8.97
-13.67
-19.95
-27.18
-33.32
-36.76
-35.54
-29.32
-18.1
-3.09
13.7
30.1
43.0
50.4
50.61
44.3
32.91
19.17
5.76
-5.6
-13.52
-18.32
-20.29
-20.81
-20.72
-21.35
-23.47
-27.06
-31.61
-35.02
-35.6
-31.29
-21.85
-7.49
10.28
29.23
47.02
60.51
67.74
67.08
59.29
45.95
29.88
13.97
0.12
-10.09
-16.87
-20.38
-21.99
-22.54
-23.36
-25.28
-28.37
-32.35
-35.47
-36.29
-32.93
-24.99
-12.34
3.97
21.99
39.5
53.21
60.87
60.66
53.17
39.94
23.8
7.57
-6.75
-17.41
-24.23
-27.04
-27.02
-25.13
-23.07
-22.21
-23.13
-25.88
-28.82
-30.47
-28.75
-22.91
-12.46
2.0
18.81
35.86
49.78
58.07
58.57
51.7
38.83
22.72
6.23
-8.58
-19.69
-26.62
-28.87
-27.48
-23.53
-19.06
-15.92
-15.08
-16.93
-19.95
-22.65
-22.77
-19.26
-11.2
1.18
16.5
32.72
46.28
54.44
54.83
47.72
34.5
17.92
0.89
-14.56
-26.38
-33.96
-36.64
-35.31
-30.99
-25.8
-21.78
-20.17
-21.68
-25.07
-29.01
-31.22
-30.44
-25.46
-16.17
-3.64
10.34
22.4
29.94
30.65
24.69
13.27
-1.15
-15.88
-28.94
-38.16
-42.73
-41.81
-36.24
-27.18
-16.88
-7.65
-1.08
1.64
1.19
-1.65
-4.89
-7.26
-7.27
-4.33
1.0
7.52
12.45
13.73
9.4
-0.25
-14.21
-30.3
-46.01
-59.31
-67.69
-69.93
-64.87
-53.35
-36.69
-17.45
1.57
18.09
29.79
35.98
36.23
31.94
24.66
16.92
10.81
7.26
6.37
6.23
5.08
0.79
-7.14
-18.82
-33.21
-48.43
-62.34
-71.69
-74.22
-68.05
-53.84
-33.38
-9.77
13.71
34.62
50.67
61.16
65.47
64.65
59.91
53.53
47.74
43.89
42.75
43.08
43.62
42.37
38.7
32.25
23.77
14.75
6.62
1.68
1.2
6.45
16.88
31.6
48.72
65.87
80.94
91.19
95.17
91.64
81.42
65.84
47.32
28.5
11.46
-1.54
-9.71
-12.38
-10.6
-5.57
0.48
5.55
8.34
8.0
5.41
1.48
-1.87
-3.44
-1.78
3.55
11.59
20.39
26.2
26.08
17.78
2.09
-18.87
-41.62
-62.79
-80.24
-92.04
-97.73
-96.69
-89.75
-77.85
-63.03
-47.81
-34.44
-25.32
-21.14
-22.15
-26.78
-33.4
-39.67
-43.89
-45.49
-44.54
-42.82
-41.75
-43.18
-47.55
-55.14
-65.17
-75.92
-85.28
-89.85
-87.27
-75.71
-56.05
-30.34
-1.89
25.98
50.98
71.0
85.42
93.53
96.1
93.92
88.86
83.07
78.21
75.93
76.08
78.39
81.24
83.71
84.63
83.59
80.9
76.87
72.85
69.62
68.54
69.98
74.52
81.8
90.36
98.11
101.46
97.9
85.53
65.3
39.3
10.87
-16.76
-41.41
-61.05
-75.05
-82.64
-84.51
-81.41
-75.21
-68.17
-62.2
-59.26
-59.62
-63.29
-68.65
-74.36
-78.52
-79.98
-78.72
-75.34
-72.01
-70.41
-72.39
-78.06
-87.15
-98.29
-109.36
-118.13
-121.45
-117.3
-104.14
-83.01
-55.89
-26.06
3.13
29.21
49.89
64.45
72.28
74.35
71.77
66.7
61.36
57.27
55.61
55.68
56.71
56.95
55.67
52.19
46.71
40.18
33.53
28.68
26.77
29.18
35.86
46.57
60.11
74.47
87.5
96.03
98.11
92.17
79.05
60.34
38.8
17.22
-2.39
-17.95
-28.79
-34.16
-34.88
-31.82
-26.89
-22.12
-19.07
-19.19
-22.28
-28.05
-34.76
-41.12
-45.34
-46.44
-44.69
-41.14
-38.55
-39.03
-44.55
-54.82
-68.78
-84.19
-98.39
-109.15
-113.75
-110.82
-99.22
-80.01
-54.87
-26.72
1.28
26.62
46.77
60.82
68.1
69.73
66.96
62.05
57.21
53.88
53.27
54.78
57.78
60.46
61.77
60.33
55.63
48.14
38.82
30.12
23.88
22.12
24.98
32.14
42.18
53.06
62.89
68.92
69.6
63.5
51.33
34.4
15.16
-3.76
-20.52
-33.25
-41.6
-45.23
-45.23
-42.48
-38.63
-35.2
-33.22
-33.79
-36.59
-41.39
-46.65
-51.27
-53.61
-52.74
-48.82
-42.69
-36.83
-33.2
-33.81
-38.81
-47.76
-59.14
-70.81
-80.75
-86.07
-85.07
-76.27
-60.46
-39.27
-15.56
7.63
28.01
43.4
53.24
57.11
56.22
51.87
46.33
41.67
39.03
38.96
40.1
41.17
40.27
37.0
31.23
23.81
16.18
9.48
5.64
5.62
10.59
20.18
33.85
50.0
66.31
80.46
89.33
91.18
84.73
71.09
51.98
30.25
8.72
-10.61
-25.75
-36.14
-41.18
-41.77
-38.77
-34.01
-29.38
-26.32
-26.27
-29.14
-34.74
-41.51
-48.23
-53.11
-55.06
-54.05
-50.74
-47.51
-46.21
-48.83
-55.45
-65.55
-77.47
-88.82
-97.33
-99.96
-94.97
-81.12
-59.58
-32.51
-3.24
24.75
48.94
67.05
78.5
82.92
81.53
75.62
67.38
59.01
51.97
47.58
45.38
44.96
44.82
44.38
42.88
40.17
36.56
31.99
27.31
22.75
19.41
17.62
18.17
21.04
25.27
29.38
30.49
26.67
16.34
0.26
-20.03
-41.82
-62.18
-78.82
-89.2
-92.24
-87.05
-74.73
-56.81
-35.9
-14.86
4.04
18.5
27.81
31.47
30.64
26.56
21.33
16.89
14.37
14.6
16.77
20.11
22.97
24.67
24.41
22.14
18.49
14.14
10.85
9.74
12.27
18.51
28.4
40.82
53.76
65.02
71.35
70.75
61.8
45.62
24.27
1.0
-20.95
-39.36
-52.19
-58.97
-59.27
-54.14
-44.63
-32.71
-20.52
-9.88
-2.74
0.43
-0.65
-4.62
-10.17
-15.15
-17.92
-17.77
-14.62
-10.14
-5.87
-3.83
-4.54
-8.12
-13.49
-18.84
-22.38
-21.77
-16.01
-4.42
11.75
31.42
52.97
74.9
96.14
114.65
128.76
136.16
135.98
128.02
114.43
98.81
85.08
77.27
77.1
84.19
95.36
106.46
112.71
110.88
99.01
76.25
43.34
1.73
-45.36
-94.29
-140.72
-181.3
-213.63
-237.08
-252.79
-261.21
-262.11
-253.57
-233.72
-200.34
-159.06
-116.12
-78.87
-53.31
-40.39
-36.91
-36.62
-34.12
-28.12
-21.77
-20.35
-27.83
-44.21
-63.93
-78.97
-82.13
-71.21
-50.2
-27.15
-10.46
-4.56
-8.52
-16.13
-20.08
-15.5
-2.44
13.87
27.06
32.79
31.37
26.44
22.98
23.88
28.72
34.78
38.1
36.86
30.91
22.31
13.13
4.9
-1.6
-6.43
-8.76
-7.94
-2.45
8.09
23.67
42.91
63.46
82.83
97.89
106.86
108.41
103.5
93.8
82.15
71.34
62.79
57.15
53.0
49.08
43.71
36.97
29.45
22.27
16.28
10.82
5.18
-2.04
-10.59
-19.71
-27.21
-31.42
-32.12
-30.49
-29.81
-32.58
-40.76
-53.68
-69.71
-86.16
-100.3
-110.22
-113.64
-109.62
-97.2
-77.4
-51.76
-23.02
5.58
31.36
51.56
65.13
71.38
71.47
66.7
59.23
51.27
44.35
40.14
38.86
40.78
44.77
50.05
55.17
58.88
60.32
58.39
53.16
44.54
33.91
22.56
12.72
6.07
3.15
3.45
4.39
3.71
-1.0
-10.07
-23.07
-38.29
-53.35
-66.0
-73.27
-73.43
-65.15
-49.46
-28.26
-4.64
18.07
37.49
51.37
59.16
60.44
56.39
48.09
37.48
26.59
17.05
10.75
8.18
9.75
14.32
20.85
27.52
32.78
35.59
34.91
30.98
23.92
15.23
6.21
-1.03
-5.0
-5.43
-3.19
-1.26
-2.23
-8.58
-20.35
-36.56
-54.88
-72.5
-87.08
-95.86
-97.43
-90.61
-76.38
-56.37
-33.32
-10.31
10.37
26.46
37.34
42.53
43.1
40.01
34.99
29.85
25.86
24.59
26.23
31.02
37.73
45.44
52.46
57.53
59.93
59.03
55.54
49.95
43.88
38.48
35.46
35.75
38.95
43.55
46.04
43.57
33.77
17.09
-4.69
-28.46
-50.97
-69.91
-82.99
-89.35
-88.16
-80.28
-66.84
-50.09
-32.7
-16.92
-5.13
1.88
3.61
1.34
-3.66
-9.31
-13.77
-15.99
-15.08
-11.66
-6.18
-0.21
5.36
9.18
10.58
9.69
7.09
4.82
4.47
7.92
15.47
27.08
41.62
57.12
71.4
81.28
84.7
79.93
67.72
49.67
28.57
7.37
-11.89
-27.13
-37.78
-43.19
-44.16
-41.43
-36.64
-31.65
-27.97
-27.43
-30.43
-37.23
-46.46
-56.78
-66.04
-72.6
-75.77
-75.5
-73.43
-70.94
-70.03
-71.45
-75.88
-82.97
-91.38
-99.25
-103.33
-101.29
-91.12
-73.41
-49.75
-22.98
3.88
28.64
49.0
64.08
72.86
75.91
73.84
68.26
61.21
54.45
50.12
48.96
51.54
56.75
63.47
69.79
74.06
75.33
72.7
66.62
57.44
46.79
36.05
27.35
22.15
20.61
21.69
22.26
19.6
11.24
-2.73
-21.12
-41.39
-60.66
-76.68
-86.84
-89.88
-84.64
-72.01
-53.44
-31.59
-9.5
10.44
25.82
35.91
40.22
39.96
36.31
31.29
26.8
24.04
24.09
26.52
30.98
35.98
40.71
43.99
45.24
44.54
42.05
39.19
36.87
36.63
38.93
44.29
52.27
61.34
69.41
72.99
69.69
57.76
38.26
13.42
-13.32
-38.53
-59.94
-75.51
-84.74
-87.07
-83.44
-74.77
-63.02
-50.53
-39.36
-31.89
-28.92
-30.94
-36.57
-44.37
-51.98
-57.55
-60.18
-59.54
-56.99
-53.69
-51.52
-51.29
-53.84
-59.09
-65.96
-72.79
-76.52
-74.87
-65.86
-49.92
-28.46
-4.05
20.48
43.02
61.2
74.0
80.28
80.56
75.58
67.09
57.31
48.08
41.62
38.68
39.89
44.11
50.27
56.42
60.91
62.69
60.75
55.46
47.1
37.31
27.46
19.73
15.56
15.03
17.03
18.3
16.09
7.96
-5.93
-24.29
-44.56
-63.9
-80.14
-90.8
-94.7
-90.65
-79.4
-62.23
-41.64
-20.58
-1.5
13.08
22.31
25.63
24.29
19.65
13.91
9.08
6.34
6.59
9.07
13.13
17.11
20.21
21.35
20.22
17.29
13.3
10.3
9.72
13.25
21.02
32.85
47.47
62.84
76.83
86.31
89.3
84.22
71.82
53.71
32.6
11.37
-7.96
-23.31
-34.06
-39.53
-40.49
-37.71
-32.88
-27.87
-24.24
-23.79
-26.88
-33.75
-42.99
-53.19
-62.11
-68.07
-70.47
-69.53
-67.26
-65.44
-66.19
-70.09
-77.36
-87.09
-97.42
-106.2
-110.05
-106.7
-94.37
-73.94
-47.45
-18.2
10.45
36.17
56.8
71.77
80.42
83.57
81.98
77.38
71.77
66.78
64.13
63.95
66.29
69.74
73.45
76.11
76.98
75.88
72.46
67.45
61.12
54.87
49.63
46.96
47.59
50.91
55.19
56.73
52.7
40.9
22.11
-1.57
-26.81
-50.33
-70.02
-83.87
-91.26
-91.43
-85.13
-73.27
-57.87
-41.5
-26.47
-15.38
-9.23
-8.61
-12.22
-18.62
-25.49
-30.88
-33.69
-33.2
-30.21
-25.45
-20.61
-16.62
-14.81
-15.7
-18.86
-23.29
-26.42
-26.28
-20.85
-10.14
5.24
23.51
42.34
59.67
72.69
79.78
79.45
72.28
59.44
43.25
26.34
10.72
-1.41
-9.34
-12.41
-11.55
-7.71
-2.7
1.63
3.94
2.76
-1.93
-10.17
-20.44
-31.38
-40.8
-47.12
-49.89
-49.54
-48.44
-48.59
-52.18
-59.5
-70.29
-83.07
-95.61
-105.64
-110.01
-106.74
-94.3
-73.72
-47.02
-17.5
11.41
37.27
57.8
72.43
80.59
83.26
81.32
76.59
71.06
66.25
63.78
63.77
66.22
69.81
73.73
76.72
78.03
77.38
74.38
69.69
63.57
57.41
52.18
49.47
50.04
53.35
57.7
59.49
55.88
44.64
26.45
3.25
-21.75
-45.36
-65.45
-79.95
-88.15
-89.23
-83.89
-73.04
-58.66
-43.25
-29.09
-18.69
-13.01
-12.68
-16.45
-22.92
-29.85
-35.28
-38.12
-37.56
-34.36
-29.2
-23.77
-19.12
-16.63
-16.95
-19.68
-23.79
-26.68
-26.33
-20.69
-9.8
5.71
24.08
43.04
60.58
73.99
81.69
82.15
75.86
63.88
48.41
32.07
16.91
5.24
-2.1
-4.36
-2.49
2.47
8.54
13.79
16.79
16.17
12.01
4.45
-4.88
-14.52
-22.28
-26.65
-27.44
-25.49
-23.65
-24.31
-29.74
-39.95
-54.11
-70.15
-85.57
-98.24
-105.41
-105.55
-97.3
-81.48
-59.65
-34.62
-9.53
13.12
30.85
42.81
48.38
48.69
44.96
39.4
34.12
30.52
29.74
31.21
34.36
37.53
39.86
40.24
38.34
34.66
29.95
26.17
24.67
27.11
33.59
43.98
57.16
71.2
83.98
92.4
94.43
88.41
75.09
56.04
33.98
11.8
-8.44
-24.61
-36.01
-41.87
-42.97
-40.13
-35.19
-30.13
-26.58
-26.26
-29.37
-35.95
-44.46
-53.47
-60.82
-65.05
-65.87
-63.9
-61.52
-60.75
-63.67
-70.45
-80.68
-92.79
-104.53
-113.69
-117.21
-113.22
-100.24
-79.26
-52.2
-22.28
7.16
33.61
54.73
69.77
78.09
80.69
78.62
73.95
68.84
64.85
63.4
64.17
66.79
69.66
71.92
72.46
70.93
67.69
63.25
59.21
56.6
56.94
60.5
67.58
77.46
88.45
98.39
103.87
102.57
92.71
75.22
51.99
26.09
0.57
-22.54
-41.25
-54.97
-62.93
-65.74
-63.98
-59.29
-53.63
-48.81
-46.97
-48.74
-54.55
-62.96
-72.49
-80.79
-86.07
-87.68
-85.79
-82.37
-79.13
-78.24
-80.37
-85.91
-94.16
-103.36
-111.33
-114.56
-110.61
-97.59
-76.44
-49.29
-19.54
9.4
35.27
56.05
71.25
80.21
83.67
82.31
77.79
72.17
67.11
64.43
64.28
66.62
69.98
73.39
75.52
75.71
73.89
69.92
64.76
58.83
53.59
49.9
49.19
52.02
57.54
63.76
66.8
63.64
52.06
33.01
8.81
-16.97
-40.95
-61.14
-75.77
-84.51
-86.7
-83.04
-74.17
-61.87
-48.51
-36.37
-28.08
-24.65
-26.64
-32.6
-40.92
-49.11
-55.2
-58.26
-57.9
-55.41
-51.87
-49.11
-47.96
-49.41
-53.58
-59.58
-65.97
-69.8
-68.84
-61.05
-46.71
-26.91
-3.94
19.64
41.79
60.07
73.23
79.9
80.46
75.58
67.06
57.17
47.82
41.3
38.42
39.83
44.41
50.97
57.45
62.02
63.62
61.36
55.91
47.82
38.87
30.39
24.26
21.56
22.07
24.49
25.57
22.63
13.37
-1.87
-21.63
-43.19
-63.63
-80.77
-92.26
-96.98
-93.89
-83.74
-67.73
-48.28
-28.28
-10.18
3.44
11.64
13.87
11.39
5.66
-0.94
-6.37
-9.47
-9.48
-7.41
-4.14
-1.43
-0.12
-1.17
-4.68
-9.82
-15.41
-18.91
-18.55
-12.55
-1.15
14.84
33.58
52.72
70.25
83.49
90.94
91.2
84.81
72.83
57.45
41.24
26.28
14.94
8.1
6.54
9.26
15.11
21.95
27.73
31.1
30.85
27.41
21.23
14.08
7.36
3.04
2.23
4.65
8.9
11.58
9.94
1.64
-12.93
-32.21
-53.46
-73.74
-90.98
-102.88
-108.45
-106.59
-97.95
-83.57
-65.71
-47.17
-30.4
-18.06
-11.17
-10.35
-14.27
-21.36
-29.1
-35.36
-39.03
-39.59
-38.31
-36.38
-35.72
-37.12
-41.4
-48.41
-56.93
-65.23
-70.18
-69.46
-61.06
-45.46
-24.03
0.67
25.84
49.44
69.13
83.86
92.42
95.25
92.99
87.41
80.69
74.63
71.2
70.81
73.69
78.47
84.06
88.69
91.19
91.16
88.46
84.35
79.74
76.32
74.9
76.52
81.24
87.91
94.48
97.21
93.29
80.59
59.95
33.5
4.66
-23.26
-48.11
-67.84
-81.86
-89.32
-90.82
-87.03
-79.76
-71.34
-63.85
-59.59
-59.17
-62.85
-69.05
-76.25
-82.16
-85.26
-85.17
-82.3
-78.75
-76.21
-76.63
-80.37
-87.45
-96.84
-106.67
-114.85
-118.09
-114.2
-101.43
-80.67
-53.89
-24.34
4.61
30.58
51.28
66.02
74.08
76.34
73.8
68.54
62.81
58.22
56.16
56.15
57.58
58.71
58.66
56.51
52.21
46.52
40.22
35.22
32.63
33.94
39.22
48.46
60.65
73.94
86.23
94.3
96.06
89.82
76.4
57.38
35.53
13.66
-6.29
-22.28
-33.67
-39.67
-40.98
-38.35
-33.58
-28.67
-25.26
-25.08
-28.25
-34.75
-42.97
-51.5
-58.24
-61.84
-62.16
-59.93
-57.66
-57.37
-61.1
-68.9
-80.18
-93.23
-105.7
-115.42
-119.43
-115.96
-103.61
-83.36
-57.03
-27.75
1.13
27.07
47.58
61.85
69.2
70.73
67.64
62.25
56.8
52.8
51.39
51.85
53.42
54.32
53.78
50.98
46.04
39.87
33.47
28.97
27.67
31.05
38.9
50.76
65.17
79.98
93.11
101.59
103.67
97.91
85.09
66.7
45.32
23.74
4.02
-11.59
-22.27
-27.21
-27.24
-23.32
-17.45
-11.71
-7.71
-7.04
-9.67
-15.48
-22.78
-30.14
-35.42
-37.3
-35.78
-31.98
-28.9
-29.03
-34.61
-45.47
-60.52
-77.46
-93.67
-107.06
-115.03
-116.26
-109.48
-95.46
-75.56
-52.39
-29.0
-7.91
8.26
18.53
22.24
20.62
15.12
8.22
2.16
-1.75
-2.74
-1.93
-0.39
-0.01
-1.58
-5.89
-12.7
-20.83
-28.75
-33.7
-33.77
-27.21
-14.47
3.37
24.17
45.41
65.11
80.8
91.19
94.98
92.64
84.93
73.76
61.45
49.98
41.68
37.5
38.21
42.74
49.83
57.25
63.01
65.86
64.92
60.96
54.74
48.15
42.59
39.89
40.92
45.1
50.55
53.38
50.43
39.25
20.52
-3.57
-29.56
-54.08
-75.02
-90.46
-99.86
-102.43
-98.76
-89.57
-76.75
-62.81
-50.13
-41.35
-37.45
-38.93
-44.28
-51.83
-59.09
-64.16
-66.22
-65.13
-62.45
-59.48
-58.13
-59.14
-63.23
-70.15
-78.56
-86.48
-90.49
-88.04
-77.1
-58.42
-33.89
-6.62
20.25
44.6
64.38
78.9
87.25
89.95
87.54
81.66
74.4
67.62
63.47
62.53
65.08
69.79
75.43
80.2
82.82
82.75
79.62
74.38
67.64
61.01
55.5
52.62
53.05
56.18
60.33
61.94
58.15
46.72
28.28
4.77
-20.62
-44.67
-65.22
-80.15
-88.71
-90.05
-84.86
-74.09
-59.78
-44.54
-30.67
-20.7
-15.51
-15.63
-19.68
-26.2
-32.87
-37.76
-39.93
-38.85
-35.67
-31.33
-27.61
-25.3
-25.36
-27.9
-32.16
-36.98
-39.82
-38.86
-32.26
-20.18
-3.37
16.33
36.55
55.25
69.7
78.39
79.87
74.7
63.93
49.74
34.66
20.7
10.08
3.63
2.03
4.34
9.49
15.52
20.5
23.11
22.04
17.55
9.86
0.67
-8.6
-15.81
-19.58
-19.88
-17.72
-16.15
-17.67
-24.55
-36.62
-52.68
-70.34
-86.84
-100.0
-107.23
-107.27
-98.96
-83.2
-61.52
-36.62
-11.6
11.03
28.71
40.55
45.92
45.96
41.93
36.06
30.46
26.53
25.48
26.89
30.3
34.12
37.39
38.79
37.77
34.62
30.05
26.13
24.39
26.61
32.95
43.27
56.42
70.47
83.39
92.11
94.65
89.31
76.75
58.42
36.97
15.25
-4.68
-20.6
-31.76
-37.36
-38.17
-35.05
-29.86
-24.61
-20.95
-20.67
-23.99
-31.03
-40.22
-50.05
-58.2
-63.03
-64.17
-62.26
-59.85
-59.12
-62.25
-69.41
-80.07
-92.55
-104.49
-113.69
-117.17
-113.17
-100.25
-79.43
-52.6
-22.86
6.43
32.84
53.98
69.12
77.61
80.38
78.43
73.7
68.3
63.83
61.94
62.66
65.9
70.24
74.67
77.75
78.67
77.32
73.81
69.49
65.25
62.69
62.4
65.14
70.72
77.81
84.34
86.73
82.4
69.44
48.83
22.77
-5.27
-31.93
-55.01
-72.5
-83.91
-88.58
-87.29
-80.79
-70.94
-60.03
-50.2
-43.88
-41.96
-44.94
-51.42
-59.9
-67.97
-73.76
-76.42
-75.7
-73.01
-69.61
-67.42
-67.25
-69.98
-75.51
-82.69
-89.8
-93.6
-91.7
-82.03
-65.06
-42.27
-16.32
9.94
34.46
54.98
70.53
79.96
83.65
82.1
76.91
70.19
63.74
59.81
59.11
62.21
67.87
74.91
81.32
85.49
86.58
83.98
78.49
70.76
62.55
55.11
50.28
49.01
50.91
54.36
55.72
52.02
40.84
22.75
-0.39
-25.38
-49.01
-69.15
-83.66
-91.81
-92.68
-86.96
-75.57
-60.6
-44.7
-30.24
-19.82
-14.39
-14.49
-18.75
-25.65
-32.8
-38.24
-40.98
-40.48
-37.85
-34.07
-30.91
-29.19
-29.9
-33.16
-38.19
-43.73
-47.12
-46.41
-39.69
-27.15
-9.59
11.06
32.41
52.47
68.61
79.36
83.28
80.8
72.8
61.3
48.7
36.98
28.39
23.78
23.85
27.6
33.91
40.74
46.19
48.99
48.05
43.78
36.61
28.29
20.25
14.52
12.35
13.6
16.98
19.19
17.5
9.52
-4.51
-23.21
-43.94
-63.81
-80.7
-92.16
-97.07
-94.34
-84.68
-69.28
-50.51
-31.19
-13.66
-0.39
7.74
10.15
8.05
2.74
-3.58
-8.92
-12.09
-12.17
-9.84
-5.71
-1.45
2.01
3.42
2.29
-0.95
-5.46
-8.96
-9.73
-5.9
2.67
15.66
31.69
48.68
64.56
76.35
82.2
80.47
71.77
57.41
39.83
21.73
5.08
-8.02
-16.87
-20.78
-20.57
-17.07
-12.04
-7.36
-4.5
-5.07
-9.26
-17.15
-27.21
-37.99
-47.23
-53.3
-55.72
-54.97
-53.41
-53.07
-56.13
-62.91
-73.15
-85.41
-97.49
-107.14
-111.21
-107.73
-95.17
-74.54
-47.86
-18.37
10.53
36.44
57.1
71.9
80.23
83.01
81.09
76.28
70.61
65.63
63.08
63.14
65.87
69.92
74.37
77.82
79.38
78.77
75.67
70.9
64.92
59.2
54.67
52.78
54.14
58.04
62.69
64.43
60.4
48.42
29.26
5.02
-20.94
-45.3
-65.92
-80.74
-89.17
-90.49
-85.43
-74.88
-60.81
-45.74
-31.92
-21.9
-16.64
-16.73
-20.86
-27.59
-34.59
-39.95
-42.62
-41.92
-38.75
-33.9
-29.08
-25.27
-23.73
-24.94
-28.37
-32.9
-35.82
-35.09
-28.69
-16.72
0.03
19.63
39.72
58.28
72.67
81.42
83.09
78.15
67.59
53.53
38.51
24.54
13.97
7.62
6.26
8.87
14.39
20.79
26.17
29.18
28.5
24.33
16.87
7.76
-1.55
-8.91
-12.86
-13.27
-11.07
-9.22
-10.19
-16.3
-27.51
-42.91
-60.39
-77.41
-91.94
-101.31
-104.06
-98.79
-86.14
-67.47
-45.41
-23.03
-2.84
12.56
22.27
25.65
23.96
18.64
12.12
6.6
3.32
2.97
4.39
6.5
7.4
6.35
2.69
-3.31
-10.48
-17.43
-21.6
-21.3
-14.9
-2.82
14.0
33.5
53.23
71.11
84.49
91.97
92.27
86.04
74.35
59.4
43.71
29.3
18.44
11.98
10.63
13.37
19.04
25.53
30.87
33.76
33.14
29.52
23.44
16.66
10.49
6.74
6.38
9.05
13.36
15.99
14.26
5.88
-8.76
-28.13
-49.45
-69.74
-86.82
-98.32
-103.21
-100.43
-90.76
-75.38
-56.63
-37.37
-19.99
-7.05
0.55
2.27
-0.57
-6.5
-13.12
-18.38
-21.19
-20.98
-18.92
-16.06
-14.22
-14.17
-16.67
-21.63
-28.05
-34.54
-38.47
-37.96
-31.22
-18.54
-0.91
19.61
40.47
59.54
74.18
83.03
84.8
80.12
70.05
56.71
42.54
29.43
19.58
13.72
12.51
14.99
20.16
26.12
31.07
33.74
32.81
28.46
20.81
11.47
1.84
-5.91
-10.29
-11.08
-9.11
-7.26
-7.95
-13.54
-24.12
-38.89
-55.84
-72.42
-86.45
-95.15
-96.94
-90.46
-76.53
-56.67
-33.65
-10.52
10.35
26.61
37.54
42.57
42.77
39.29
34.14
29.33
26.18
25.87
27.99
32.08
36.59
40.62
42.98
43.17
41.45
38.25
35.24
33.56
34.82
39.37
47.54
58.67
71.15
82.89
90.55
91.77
84.67
69.97
49.39
25.87
2.41
-18.9
-36.02
-48.26
-54.85
-56.48
-53.91
-48.91
-43.52
-39.49
-38.6
-41.12
-47.07
-54.87
-63.1
-69.67
-73.2
-73.51
-71.18
-68.52
-67.39
-69.76
-75.83
-85.29
-96.74
-108.04
-117.03
-120.62
-116.86
-104.2
-83.61
-56.99
-27.53
1.44
27.44
48.11
62.68
70.46
72.39
69.55
64.05
58.13
53.36
51.13
51.05
52.59
54.07
54.61
53.14
49.44
44.11
37.94
32.87
30.19
31.5
36.91
46.4
58.92
72.66
85.53
94.39
97.16
92.14
80.04
62.34
41.72
20.93
1.9
-13.32
-24.08
-29.58
-30.52
-27.63
-22.67
-17.58
-14.02
-13.68
-16.76
-23.3
-31.71
-40.47
-47.26
-50.54
-50.07
-46.92
-44.12
-44.39
-50.14
-61.53
-77.51
-95.61
-113.12
-127.39
-135.93
-137.38
-130.92
-118.06
-101.03
-83.39
-68.32
-58.04
-53.19
-52.32
-53.2
-52.28
-47.27
-36.39
-19.86
0.86
23.55
45.42
64.36
78.16
86.07
87.52
83.4
75.26
65.33
56.0
48.84
44.84
43.06
42.45
40.98
37.67
31.67
23.1
13.21
3.55
-3.17
-5.09
-0.61
9.79
25.03
43.07
61.41
78.08
90.55
97.47
97.57
91.42
79.97
65.29
49.78
35.4
24.41
17.69
15.98
18.33
23.63
29.85
35.0
37.79
37.0
33.0
26.17
18.22
10.55
5.16
3.26
4.73
8.3
10.74
9.36
1.82
-11.66
-29.75
-49.84
-69.09
-85.34
-96.13
-100.3
-96.7
-86.08
-69.68
-49.93
-29.71
-11.42
2.43
10.97
13.62
11.65
6.43
0.27
-4.79
-7.58
-7.35
-5.04
-1.51
1.48
3.11
2.43
-0.67
-5.42
-10.73
-14.2
-14.15
-8.83
1.6
16.5
34.12
52.17
68.54
80.4
86.14
84.36
75.75
61.56
44.19
26.26
9.76
-3.1
-11.59
-14.99
-14.2
-10.15
-4.71
0.22
3.21
2.73
-1.27
-8.78
-18.27
-28.29
-36.61
-41.69
-43.16
-41.7
-39.94
-40.08
-44.36
-52.9
-65.12
-79.23
-92.85
-103.83
-109.22
-107.32
-96.65
-78.12
-53.48
-25.75
1.74
26.48
46.0
59.54
66.46
67.9
65.05
60.12
55.26
51.9
51.19
52.52
55.25
57.71
59.13
58.62
56.09
52.15
47.52
43.95
42.53
44.7
50.5
59.88
71.78
84.33
95.38
101.7
101.22
92.32
75.89
53.67
28.62
3.75
-18.83
-36.97
-49.94
-56.98
-58.85
-56.38
-51.46
-46.16
-42.19
-41.31
-43.69
-49.31
-56.59
-64.13
-69.91
-72.61
-72.16
-69.26
-66.36
-65.44
-68.47
-75.48
-85.9
-98.03
-109.59
-118.43
-121.58
-117.31
-104.2
-83.2
-56.14
-26.12
3.53
30.25
51.51
66.47
74.39
76.35
73.59
68.41
63.11
59.24
58.02
58.77
60.76
62.14
61.96
59.17
53.61
46.06
37.61
30.55
26.49
27.13
32.39
41.78
53.83
66.41
77.57
84.52
85.65
79.59
67.06
49.38
28.99
8.51
-10.06
-24.59
-34.31
-38.5
-38.07
-33.99
-28.25
-22.86
-19.35
-19.23
-22.46
-28.95
-37.05
-45.32
-51.64
-54.55
-53.94
-50.68
-47.6
-47.06
-51.28
-60.21
-72.92
-87.26
-100.61
-110.75
-114.92
-111.65
-99.76
-80.24
-54.86
-26.61
1.27
26.27
45.92
59.47
66.35
67.73
64.83
59.81
54.79
51.15
50.09
51.08
53.61
56.11
57.84
57.82
55.82
52.3
47.75
43.82
41.54
42.45
46.8
54.86
65.88
78.15
89.52
96.61
97.12
89.26
73.86
52.71
28.8
5.1
-16.36
-33.58
-45.98
-52.83
-54.83
-52.63
-47.93
-42.7
-38.64
-37.65
-40.09
-46.16
-54.34
-63.21
-70.6
-74.97
-75.96
-73.92
-71.02
-69.04
-70.07
-74.53
-82.43
-92.67
-103.24
-111.9
-115.34
-111.38
-98.35
-77.29
-50.27
-20.63
8.25
34.07
54.69
69.58
78.11
81.1
79.34
74.56
68.81
63.69
60.97
60.78
63.1
66.51
70.08
72.46
72.9
71.27
67.37
62.15
56.1
50.67
46.71
45.54
47.63
52.16
57.31
59.44
55.82
44.35
25.87
2.48
-22.5
-45.86
-65.56
-79.63
-87.51
-88.44
-83.14
-72.43
-58.26
-43.16
-29.47
-19.81
-15.21
-16.24
-21.48
-29.33
-37.22
-43.13
-46.04
-45.59
-43.15
-39.9
-37.75
-37.53
-40.12
-45.44
-52.4
-59.35
-63.17
-61.59
-52.63
-36.83
-15.69
8.13
31.73
53.0
69.66
80.7
85.08
83.37
76.32
65.77
54.01
43.01
35.07
31.07
31.62
35.61
41.84
48.27
53.11
55.22
53.57
48.53
40.41
30.83
21.16
13.54
9.39
8.84
10.87
12.36
10.66
3.33
-9.55
-26.85
-46.17
-64.72
-80.36
-90.5
-93.83
-89.12
-77.12
-59.19
-37.9
-16.23
3.37
18.45
28.2
32.07
31.31
27.19
21.9
17.4
14.9
15.33
18.04
22.44
26.94
30.73
32.72
32.53
30.52
27.22
24.41
23.3
25.44
30.97
39.88
51.12
62.83
72.9
78.13
76.45
66.29
48.63
25.46
-0.01
-24.41
-45.36
-60.62
-69.57
-71.72
-68.23
-60.34
-50.22
-40.18
-31.96
-27.21
-25.97
-28.16
-32.31
-37.33
-41.63
-44.13
-44.6
-43.09
-41.11
-39.74
-40.59
-43.91
-49.83
-57.57
-65.7
-72.78
-76.44
-75.25
-67.73
-54.23
-35.51
-13.38
9.77
31.8
49.92
62.57
68.4
68.0
62.4
53.63
43.92
34.92
28.54
25.36
26.0
29.56
35.15
40.97
45.32
47.01
44.99
39.68
31.51
22.25
13.26
6.46
2.97
2.67
4.47
5.42
3.15
-4.47
-17.23
-33.99
-52.41
-69.75
-83.82
-92.0
-92.98
-85.62
-70.8
-50.04
-26.02
-1.79
20.18
37.37
48.9
54.12
54.2
50.44
45.09
40.27
37.33
37.33
39.65
43.64
47.53
50.29
50.59
47.91
42.67
35.72
29.37
25.26
25.22
29.27
36.96
46.85
56.86
65.06
68.71
66.26
56.42
40.11
18.93
-4.31
-26.6
-45.65
-59.17
-66.47
-67.02
-62.05
-52.9
-41.84
-31.16
-22.55
-17.68
-16.61
-19.36
-24.46
-30.65
-36.0
-39.08
-39.49
-37.45
-34.91
-33.43
-34.91
-39.5
-46.95
-56.01
-64.86
-71.97
-75.03
-72.76
-63.88
-48.92
-28.85
-5.78
17.62
38.94
55.35
65.44
68.16
64.45
55.61
43.9
31.62
20.42
12.12
7.18
6.17
8.19
12.5
17.5
21.61
23.59
22.04
16.89
8.08
-2.9
-14.63
-24.81
-31.74
-34.94
-34.94
-34.29
-35.23
-40.01
-48.88
-61.32
-75.57
-89.18
-99.86
-104.56
-101.52
-89.39
-69.25
-43.11
-14.23
13.96
38.95
58.42
71.72
78.36
79.4
75.86
69.61
62.68
56.56
52.92
51.94
53.76
57.15
61.32
64.92
67.02
67.11
64.5
59.55
52.35
44.27
36.4
30.63
28.16
28.91
31.64
33.11
30.61
21.81
6.96
-12.56
-34.07
-54.6
-71.92
-83.53
-88.31
-85.23
-75.14
-59.37
-40.38
-20.97
-3.43
9.91
18.35
21.37
20.16
15.82
10.22
5.15
1.76
1.27
3.54
8.53
14.91
21.82
27.8
31.78
33.29
31.9
28.54
23.79
19.23
15.72
14.52
16.09
19.78
24.2
26.25
23.59
14.22
-1.36
-21.56
-43.5
-63.98
-80.56
-90.7
-93.39
-87.88
-75.33
-57.31
-36.39
-15.42
3.42
17.88
27.31
31.21
30.72
26.85
21.49
16.39
12.8
12.05
14.07
18.87
25.09
31.75
37.22
40.39
40.88
38.62
35.03
31.15
28.76
28.51
31.16
36.48
43.14
49.21
51.28
46.94
34.38
14.66
-9.97
-35.9
-59.49
-78.27
-90.02
-94.25
-90.58
-80.27
-64.68
-46.13
-27.28
-10.28
2.46
10.23
12.56
10.73
5.95
0.28
-4.55
-7.45
-7.38
-4.7
0.38
6.49
12.68
17.43
19.76
19.5
16.96
14.07
12.35
13.76
18.73
27.43
38.94
51.4
62.73
69.68
70.05
62.12
46.71
25.72
2.39
-19.92
-38.77
-51.94
-58.92
-59.34
-54.46
-45.6
-34.98
-24.84
-16.73
-12.03
-10.44
-11.62
-14.07
-16.93
-19.07
-19.87
-19.36
-17.43
-15.15
-13.04
-12.37
-13.43
-16.68
-21.8
-27.78
-33.46
-36.59
-35.81
-29.71
-18.67
-3.38
14.42
32.44
48.56
59.92
64.94
62.29
52.87
38.16
20.8
3.63
-11.23
-21.59
-26.86
-26.53
-21.82
-13.96
-5.14
2.59
7.87
9.58
8.22
4.25
-0.69
-5.65
-9.28
-10.87
-10.56
-8.79
-7.44
-7.84
-11.56
-18.52
-28.24
-39.27
-49.66
-57.86
-61.71
-60.24
-52.49
-39.22
-21.49
-1.35
18.62
36.11
48.35
54.04
52.26
44.21
31.5
16.72
2.53
-9.16
-16.35
-18.58
-15.44
-8.11
2.25
13.67
24.17
32.32
36.57
36.83
32.97
26.37
18.25
10.6
5.05
2.26
2.37
3.75
5.07
4.5
1.69
-3.46
-10.14
-17.07
-23.23
-26.75
-26.66
-21.68
-12.0
1.99
18.82
36.15
51.62
62.03
65.58
61.04
49.55
33.02
14.4
-3.37
-18.34
-28.62
-33.84
-33.67
-29.18
-21.32
-11.83
-2.57
5.0
9.18
9.63
6.04
-0.36
-8.46
-16.34
-22.4
-25.78
-25.91
-23.79
-20.22
-16.87
-14.54
-14.22
-16.16
-19.83
-24.43
-27.84
-28.53
-24.69
-16.16
-3.13
13.07
30.31
46.34
58.04
63.48
61.11
51.79
37.16
19.98
3.16
-11.31
-21.47
-26.9
-27.19
-23.4
-16.45
-8.12
-0.25
5.77
8.35
7.31
2.48
-4.81
-13.48
-21.67
-27.92
-31.51
-32.01
-30.47
-27.75
-25.54
-24.63
-25.98
-29.73
-35.16
-41.13
-45.16
-45.49
-40.32
-29.75
-14.5
3.66
22.38
39.55
52.42
59.44
59.3
52.72
40.98
26.51
12.02
-0.4
-8.56
-11.78
-9.55
-3.07
6.42
16.8
26.03
32.7
35.42
34.24
29.23
21.9
13.49
6.03
1.04
-1.0
-0.28
1.17
1.73
-0.51
-5.7
-13.46
-22.48
-31.03
-37.84
-40.96
-39.51
-32.31
-19.78
-2.56
17.62
38.24
56.82
70.23
76.79
75.31
66.91
53.24
36.96
20.72
6.28
-4.52
-11.32
-13.62
-12.35
-8.23
-2.82
2.31
5.88
6.39
3.63
-2.62
-11.06
-20.5
-28.93
-34.76
-37.34
-36.59
-34.15
-31.4
-30.27
-31.31
-34.93
-40.56
-46.97
-52.9
-56.01
-54.85
-47.86
-35.29
-17.86
2.56
23.47
42.54
56.85
64.78
65.1
58.69
47.0
32.56
18.07
5.43
-3.37
-7.88
-7.7
-3.94
2.41
9.61
15.98
20.36
21.42
19.14
13.41
5.48
-3.64
-12.21
-18.79
-22.67
-23.44
-22.21
-19.86
-18.09
-17.55
-18.98
-22.38
-27.12
-32.51
-36.72
-38.57
-36.44
-30.12
-19.54
-5.72
9.41
23.64
33.72
37.59
33.76
23.24
7.91
-9.1
-24.67
-36.7
-43.23
-44.01
-38.81
-28.97
-15.7
-1.01
12.97
24.7
32.42
35.81
34.57
29.91
22.79
14.91
7.81
2.5
0.17
0.65
3.96
8.79
14.2
18.61
20.84
20.41
17.08
12.14
6.53
2.07
-0.33
0.38
4.31
10.43
16.97
20.59
18.82
9.75
-5.81
-25.86
-47.07
-65.99
-80.25
-87.64
-87.62
-79.82
-65.58
-46.39
-24.72
-3.33
15.61
29.81
38.59
41.54
39.9
34.83
28.2
21.76
16.69
14.37
14.93
18.6
24.24
30.93
36.91
40.75
41.67
39.19
34.39
28.12
22.2
17.55
15.34
15.87
18.42
21.61
22.52
18.95
8.98
-6.9
-27.18
-49.03
-69.26
-85.32
-94.58
-95.99
-88.85
-74.45
-54.52
-31.82
-9.28
10.86
26.36
36.59
41.08
40.91
37.06
31.3
25.35
20.54
18.44
19.36
23.63
30.11
37.74
44.69
49.4
51.09
49.24
44.9
38.91
33.08
28.42
26.24
26.98
29.99
33.86
35.44
32.32
22.39
6.11
-14.96
-37.9
-59.47
-77.18
-88.47
-92.36
-88.05
-76.71
-59.88
-40.15
-20.38
-2.74
10.5
18.77
21.66
20.35
15.88
10.0
4.36
0.07
-1.5
-0.27
3.98
10.12
17.28
23.85
28.49
30.42
28.92
24.69
18.22
11.12
4.5
-0.08
-1.78
-0.84
1.67
2.88
0.55
-7.42
-20.79
-38.36
-57.65
-75.68
-90.0
-97.84
-97.91
-89.24
-73.05
-51.12
-26.41
-2.08
19.49
36.0
46.84
51.61
51.52
47.62
41.71
35.59
30.47
27.87
27.96
31.03
36.04
42.24
48.22
52.73
54.98
53.93
49.83
42.72
34.07
25.14
17.98
14.02
13.48
15.61
17.67
17.38
12.44
2.71
-11.15
-27.24
-43.11
-56.59
-64.88
-66.47
-60.08
-46.66
-27.89
-6.64
13.94
31.46
43.62
49.76
49.45
43.92
34.44
23.11
12.07
2.93
-2.58
-4.19
-1.68
3.66
10.77
17.85
23.44
26.71
26.9
24.58
20.1
14.9
9.82
6.26
5.08
6.3
9.46
12.5
13.76
11.27
4.73
-5.66
-18.6
-32.14
-44.44
-52.82
-55.78
-51.91
-41.82
-26.68
-8.82
9.06
24.73
35.75
41.2
40.37
34.4
24.61
13.23
2.43
-6.38
-11.85
-14.18
-13.47
-11.0
-7.48
-4.05
-1.57
-0.44
-1.3
-3.69
-7.5
-11.52
-15.07
-16.95
-16.56
-14.19
-10.55
-7.77
-7.33
-10.8
-18.0
-28.27
-40.0
-51.07
-59.72
-63.55
-61.39
-52.22
-36.95
-17.0
5.1
26.42
44.52
56.75
62.02
59.68
51.04
37.8
22.66
8.29
-3.57
-11.39
-15.4
-15.88
-14.28
-11.46
-8.62
-6.63
-5.78
-6.59
-8.41
-11.01
-13.23
-14.63
-14.42
-12.45
-9.27
-5.58
-3.25
-3.35
-7.14
-14.18
-23.8
-34.4
-44.04
-51.23
-53.95
-51.42
-42.85
-29.09
-11.2
8.78
28.36
45.19
56.46
60.75
57.08
46.65
31.24
13.84
-2.58
-15.99
-24.67
-28.73
-28.5
-25.64
-21.29
-16.92
-13.52
-11.46
-11.35
-12.82
-16.04
-20.32
-25.51
-30.73
-35.13
-38.29
-40.01
-41.76
-45.01
-51.73
-62.38
-76.61
-92.67
-108.1
-120.96
-129.42
-133.26
-132.08
-125.96
-114.82
-99.32
-81.54
-64.41
-51.59
-44.87
-44.15
-46.01
-46.05
-40.64
-28.51
-10.98
10.14
33.66
60.89
94.21
135.42
184.36
238.04
291.29
338.23
374.77
398.92
411.14
412.02
402.66
384.1
357.16
323.47
284.9
243.98
202.71
165.47
131.44
99.01
67.08
35.44
5.26
-22.22
-45.72
-65.5
-82.41
-97.86
-111.98
-123.5
-131.08
-133.71
-131.61
-124.53
-112.49
-95.24
-73.43
-48.95
-25.61
-8.48
-0.94
-2.75
-9.22
-13.53
-10.39
0.69
15.16
25.54
24.77
10.28
-17.02
-53.01
-92.78
-132.71
-170.92
-206.92
-239.8
-268.31
-290.47
-305.37
-313.55
-316.91
-318.48
-321.14
-326.72
-335.58
-346.74
-358.17
-368.25
-376.02
-381.08
-383.36
-382.51
-377.48
-366.25
-348.5
-321.31
-282.59
-231.64
-169.69
-99.66
-25.62
48.02
116.97
177.7
227.74
264.95
287.75
295.36
287.67
265.49
230.94
187.05
137.71
87.15
38.94
-4.18
-40.45
-68.89
-88.82
-98.86
-98.87
-87.74
-64.45
-29.14
16.11
67.4
119.38
166.33
204.01
230.03
244.34
248.41
244.36
234.01
218.54
198.97
176.71
155.54
140.7
138.67
155.8
197.06
265.37
361.04
481.3
613.17
739.7
840.71
897.24
896.92
838.58
732.88
598.08
453.45
313.42
186.54
75.83
-18.09
-94.82
-153.76
-195.27
-221.86
-237.98
-248.95
-258.23
-267.1
-274.57
-278.4
-276.69
-269.03
-256.86
-242.93
-230.2
-220.26
-213.19
-207.65
-201.66
-193.57
-182.75
-169.86
-156.39
-144.06
-133.81
-125.73
-119.13
-112.9
-106.11
-98.38
-89.95
-81.48
-73.72
-67.11
-61.72
-57.22
-53.11
-49.0
-44.67
-40.17
-35.71
-31.53
-27.82
-24.66
-22.01
-19.79
-17.9
-16.29
-14.92
-13.75
-12.77
-11.77
-10.87
-10.05
-9.33
-8.67
-8.07
-7.53
-7.02
-6.55
-6.13
-5.75
-5.41
-5.1
-4.81
-4.54
-4.28
-4.04
-3.81
-3.6
-3.41
-3.25
-3.1
-2.95
-2.82
-2.69
-2.57
-2.45
-2.34
-2.25
-2.17
-2.1
-2.02
-1.95
-1.87
-1.79
-1.72
-1.67
-1.65
-1.69
-1.76
-1.85
-1.94
-2.0
-2.03
-2.05
-2.04
-2.05
-2.1
-2.17
-2.27
-2.35
-2.4
-2.42
-2.42
-2.44
-2.51
-2.7
-2.94
-3.21
-3.47
-3.63
-3.72
-3.79
-3.9
-4.18
-4.64
-5.25
-5.9
-6.48
-6.88
-7.09
-7.26
-7.55
-8.15
-9.17
-10.53
-12.04
-13.46
-14.54
-15.24
-15.74
-16.3
-17.23
-18.7
-20.64
-22.78
-24.83
-26.56
-27.83
-28.73
-29.45
-30.15
-31.2
-33.06
-36.13
-40.36
-44.87
-47.98
-47.53
-41.61
-29.32
-11.26
10.53
33.1
53.39
68.97
78.6
82.35
81.54
78.19
74.44
71.94
71.33
72.26
73.67
74.61
74.43
73.26
71.63
70.17
69.6
70.68
74.17
80.33
88.13
94.65
95.61
87.06
67.57
39.57
8.87
-17.54
-34.44
-40.42
-37.92
-31.37
-24.74
-19.85
-16.36
-13.07
-9.23
-5.38
-2.83
-2.81
-5.8
-11.2
-18.02
-25.35
-33.15
-41.97
-52.17
-63.23
-73.03
-79.25
-79.83
-74.32
-64.19
-52.4
-42.04
-35.11
-32.22
-32.44
-34.55
-37.36
-40.06
-42.03
-42.73
-41.66
-38.69
-34.32
-29.66
-26.13
-24.79
-26.12
-29.58
-33.75
-36.6
-36.13
-31.04
-21.33
-8.54
4.85
16.21
23.81
27.26
27.54
26.17
24.47
23.03
21.73
20.22
18.32
16.36
14.78
13.99
13.91
14.15
14.11
13.36
11.87
9.92
8.06
6.7
6.03
5.87
5.89
5.66
4.95
3.76
2.3
0.93
-0.14
-0.79
-1.16
-1.45
-1.92
-2.68
-3.72
-4.95
-6.18
-7.31
-8.27
-9.14
-9.99
-10.94
-12.06
-13.34
-14.74
-16.23
-17.75
-19.3
-20.88
-22.49
-24.13
-25.77
-27.42
-29.05
-30.68
-32.28
-33.8
-35.12
-36.03
-36.33
-35.76
-34.15
-31.41
-27.57
-22.75
-17.05
-10.68
-3.81
3.32
10.46
17.3
23.46
28.53
32.22
34.43
35.3
35.27
34.93
34.83
35.33
36.42
37.82
39.08
39.94
40.37
40.72
41.54
43.27
46.02
49.38
52.62
54.97
56.03
55.96
55.55
55.89
57.84
61.66
66.75
72.02
76.49
79.66
81.62
83.2
85.43
89.35
95.83
105.78
119.76
137.13
155.34
169.36
173.43
163.41
138.92
104.25
67.16
36.03
16.84
11.43
17.08
28.92
41.94
52.55
58.88
60.43
57.28
49.38
39.82
30.1
20.64
10.82
-0.58
-14.8
-32.18
-51.58
-70.75
-87.16
-99.65
-109.09
-118.2
-130.55
-149.28
-176.02
-210.31
-249.16
-287.19
-316.63
-329.54
-320.05
-287.57
-238.71
-186.31
-144.95
-125.01
-128.58
-146.4
-164.31
-168.46
-151.33
-114.1
-64.96
-14.38
29.73
63.18
89.72
112.25
132.18
147.81
155.15
150.27
132.38
105.92
77.07
57.95
52.06
56.71
64.97
69.74
67.19
58.29
47.57
36.29
29.1
19.36
-1.2
-36.81
-84.35
-134.95
-178.2
-185.28
-180.19
-162.23
-142.29
-131.21
-135.33
-155.48
-189.33
-233.26
-282.63
-334.58
-354.47
-323.05
-243.81
-141.12
-42.57
34.62
85.75
115.37
129.61
139.22
144.5
142.61
131.56
112.93
91.22
71.98
60.3
57.82
66.89
81.75
95.82
103.71
102.16
90.42
70.89
49.37
33.2
31.13
46.54
78.09
120.23
164.03
198.89
215.71
209.33
179.5
131.46
73.01
10.19
-46.53
-87.59
-108.25
-108.89
-93.7
-68.08
-40.79
-17.93
-0.46
10.95
16.25
15.99
13.32
13.74
23.11
45.42
82.14
132.37
194.04
264.28
329.93
375.37
388.25
365.27
313.7
247.1
180.01
123.66
83.16
58.45
42.27
29.13
15.92
1.46
-15.78
-37.91
-67.81
-104.76
-146.16
-187.41
-223.23
-250.17
-266.38
-273.36
-273.76
-270.13
-264.2
-257.94
-251.98
-245.66
-243.36
-242.25
-241.23
-240.24
-239.94
-241.18
-245.26
-251.46
-255.88
-252.67
-235.28
-201.14
-150.91
-87.72
-12.34
70.95
158.4
248.45
339.78
429.23
508.41
568.02
601.33
606.6
587.13
548.87
499.06
443.73
386.71
327.38
266.15
205.5
148.69
97.97
51.45
5.72
-42.95
-97.79
-162.53
-235.35
-308.11
-369.3
-407.78
-419.65
-406.44
-374.68
-320.42
-251.27
-179.75
-115.76
-68.08
-24.18
17.91
52.06
73.77
78.95
62.77
26.09
-23.74
-76.3
-121.15
-154.4
-175.08
-183.84
-174.37
-146.44
-103.43
-51.85
1.06
49.92
89.29
116.82
133.46
142.2
143.02
135.86
120.82
97.93
66.69
24.33
-29.9
-92.64
-156.33
-211.81
-248.78
-259.24
-240.2
-194.83
-132.04
-62.26
5.95
67.38
118.99
159.46
184.14
187.64
168.6
131.59
85.26
38.11
-4.29
-39.99
-69.25
-93.64
-114.32
-131.45
-144.74
-153.96
-159.3
-161.37
-161.49
-161.96
-163.52
-166.35
-169.89
-173.45
-176.58
-179.3
-181.94
-185.07
-188.98
-193.77
-199.19
-204.46
-208.54
-210.44
-209.18
-203.58
-195.02
-184.13
-171.35
-157.13
-141.78
-125.69
-109.36
-93.37
-78.36
-64.89
-53.0
-42.5
-33.13
-24.44
-15.92
-7.14
2.16
12.01
22.21
32.55
42.53
51.39
58.2
62.15
62.64
59.42
52.62
42.86
31.33
19.47
8.8
0.67
-3.78
-3.85
0.76
9.86
22.91
39.1
57.37
76.37
94.61
110.48
122.31
128.45
127.45
118.21
100.21
73.64
39.43
-0.75
-44.6
-89.39
-132.13
-169.96
-200.36
-221.36
-231.72
-231.01
-219.68
-198.91
-170.47
-136.35
-98.53
-58.66
-17.93
22.88
63.33
103.1
141.8
178.71
212.74
242.43
266.04
281.81
288.64
285.78
272.9
250.23
218.8
180.7
138.83
96.89
58.66
27.8
6.91
-2.91
-2.08
7.82
24.78
46.57
71.45
97.82
125.34
153.21
179.88
203.17
221.06
232.62
237.8
238.28
236.23
237.21
245.59
263.35
289.53
320.88
352.96
379.62
396.65
400.81
397.75
393.72
393.07
396.42
401.43
405.2
403.48
397.44
389.77
394.66
422.87
477.25
551.74
635.46
719.24
795.19
866.27
937.46
1026.15
1141.94
1281.6
1429.42
1564.28
1669.36
1731.97
1756.04
1658.71
1399.59
989.85
493.41
-7.49
-451.62
-780.02
-1015.77
-1184.82
-1306.09
-1378.03
-1399.51
-1377.61
-1325.4
-1259.96
-1195.54
-1145.25
-1108.65
-1082.24
-1051.88
-1007.77
-947.73
-877.15
-804.94
-737.87
-682.63
-637.33
-599.93
-563.07
-521.76
-473.99
-420.53
-363.66
-305.51
-250.35
-199.15
-153.55
-112.3
-74.4
-39.5
-8.37
17.51
37.06
49.14
55.35
57.64
58.69
60.16
62.39
64.51
65.11
63.12
57.82
49.92
40.51
30.63
21.15
12.7
5.7
0.35
-3.25
-5.03
-4.9
-2.74
1.47
7.47
14.65
21.94
28.09
31.98
33.08
31.62
28.47
24.82
21.63
19.18
16.87
13.36
6.98
-3.61
-18.73
-37.43
-57.56
-76.5
-92.0
-103.07
-110.24
-115.27
-120.38
-127.18
-135.97
-145.5
-153.44
-157.29
-155.42
-147.74
-135.68
-122.0
-110.15
-103.63
-105.02
-114.85
-130.49
-145.79
-152.35
-142.17
-111.1
-61.11
-0.29
59.98
109.22
141.44
156.43
158.25
152.28
142.54
130.83
117.36
102.3
86.8
72.73
61.78
54.38
49.46
45.18
40.37
35.61
33.2
36.08
45.94
61.76
79.6
93.86
99.61
94.75
80.97
63.04
46.75
36.64
34.55
39.42
48.38
58.21
66.5
72.06
74.75
74.97
73.3
70.33
66.57
62.4
58.0
53.35
48.17
41.96
34.01
23.42
9.4
-8.17
-28.03
-47.09
-60.93
-65.29
-58.15
-41.17
-19.42
0.82
15.04
22.66
26.96
32.75
43.3
58.26
73.91
85.45
89.92
87.69
81.92
76.35
72.87
70.55
66.56
58.18
44.59
27.44
9.79
-5.62
-17.78
-27.75
-37.9
-50.54
-66.88
-86.58
-108.0
-128.82
-146.7
-159.85
-167.47
-170.01
-169.12
-167.04
-165.83
-166.42
-168.08
-168.74
-165.64
-156.56
-140.4
-117.38
-88.73
-56.16
-21.44
13.77
47.92
79.64
107.75
131.28
149.54
162.01
168.39
168.59
162.84
151.73
136.22
117.56
97.07
75.98
55.22
35.46
17.1
0.5
-13.89
-25.33
-32.89
-35.75
-33.65
-27.29
-18.27
-8.73
-0.55
5.17
8.32
9.44
9.15
7.75
5.13
1.05
-4.5
-11.16
-18.32
-25.37
-31.97
-38.01
-43.51
-48.46
-52.76
-56.33
-59.28
-62.03
-65.25
-69.52
-75.15
-81.89
-89.1
-95.82
-101.28
-105.0
-106.91
-107.27
-106.47
-104.95
-103.13
-101.4
-100.08
-99.24
-98.51
-97.01
-93.6
-87.3
-77.82
-65.75
-52.46
-39.57
-28.43
-19.64
-12.98
-7.78
-3.15
1.56
6.71
12.22
17.56
21.79
23.58
21.55
14.75
3.24
-11.67
-27.61
-41.91
-52.59
-59.07
-62.31
-64.23
-66.7
-70.71
-75.98
-81.24
-84.86
-85.58
-82.88
-77.08
-68.99
-59.72
-50.43
-42.13
-35.47
-30.37
-25.88
-20.23
-11.46
1.75
19.31
39.5
59.48
76.19
87.41
92.22
91.04
85.19
76.5
67.12
59.65
57.11
62.37
77.38
102.06
133.94
168.66
201.09
226.78
243.04
249.16
246.06
235.6
219.9
201.04
180.96
161.19
142.63
125.29
108.36
90.7
71.65
51.63
32.02
14.82
1.67
-6.64
-10.39
-10.59
-8.45
-4.86
-0.35
4.84
10.47
16.13
21.37
25.77
29.15
31.63
33.51
35.11
36.57
37.88
38.97
39.89
40.97
42.62
45.1
48.32
51.85
55.15
57.97
60.5
63.36
67.23
72.39
78.54
84.8
90.2
93.89
95.51
95.04
92.8
89.26
84.93
80.41
76.17
72.45
69.0
65.11
59.69
51.69
40.42
25.82
8.46
-10.64
-30.34
-49.59
-67.52
-83.57
-97.39
-108.92
-118.35
-126.04
-132.44
-137.9
-142.64
-146.6
-149.63
-151.52
-152.12
-151.43
-149.51
-146.51
-142.69
-138.46
-134.49
-131.7
-130.95
-132.7
-136.62
-141.48
-145.45
-146.62
-143.69
-136.31
-125.03
-110.95
-95.18
-78.5
-61.4
-44.3
-27.86
-13.07
-1.05
7.44
12.34
14.37
14.78
14.82
15.22
16.02
16.69
16.54
15.27
13.12
10.78
9.06
8.54
9.52
12.09
16.31
22.26
29.86
38.63
47.67
55.8
61.99
65.63
66.74
65.71
63.04
59.08
53.94
47.7
40.54
32.79
24.83
16.92
9.07
1.22
-6.61
-14.16
-20.84
-26.04
-29.38
-30.97
-31.34
-31.19
-31.08
-31.23
-31.52
-31.61
-31.19
-30.14
-28.55
-26.64
-24.58
-22.44
-20.2
-17.81
-15.35
-13.04
-11.18
-10.11
-10.01
-10.92
-12.69
-15.07
-17.87
-20.96
-24.26
-27.56
-30.48
-32.52
-33.15
-32.12
-29.52
-25.78
-21.47
-17.02
-12.54
-7.84
-2.63
3.27
9.72
16.25
22.16
26.71
29.47
30.4
29.97
29.04
28.58
29.34
31.57
34.94
38.75
42.23
44.85
46.51
47.46
48.15
49.12
50.83
53.6
57.54
62.32
67.13
70.77
71.97
69.85
64.19
55.54
44.91
33.47
22.24
11.88
2.79
-4.81
-10.85
-15.34
-18.4
-20.26
-21.23
-21.64
-21.87
-22.2
-22.89
-24.05
-25.69
-27.68
-29.85
-32.07
-34.29
-36.41
-38.36
-39.93
-40.91
-41.06
-40.34
-38.82
-36.85
-34.83
-33.12
-31.88
-30.99
-30.17
-29.17
-27.91
-26.54
-25.35
-24.59
-24.35
-24.59
-25.13
-25.87
-26.74
-27.71
-28.7
-29.45
-29.55
-28.49
-25.76
-21.03
-14.28
-5.86
3.45
12.6
20.47
26.17
29.31
30.11
29.32
27.9
26.76
26.37
26.6
26.75
25.79
22.9
18.0
12.13
7.2
5.26
7.37
12.75
18.61
20.7
14.78
-1.85
-29.26
-64.62
-102.77
-137.33
-162.11
-172.28
-165.53
-142.78
-108.33
-69.11
-33.07
-7.06
5.04
3.23
-9.09
-26.78
-44.83
-59.55
-68.85
-71.63
-67.26
-55.49
-37.12
-14.43
8.85
28.5
41.21
45.83
43.79
38.31
33.07
30.81
32.59
37.73
44.63
51.72
58.05
63.78
69.78
77.11
86.24
96.63
106.87
115.15
119.98
120.66
117.45
111.08
102.3
91.53
78.88
64.42
48.55
32.1
16.1
1.61
-10.43
-19.02
-23.0
-21.08
-12.22
3.85
26.06
51.95
78.06
100.65
116.61
124.05
122.59
113.36
98.44
80.51
62.05
44.99
30.31
18.05
7.42
-2.87
-14.1
-27.2
-42.26
-58.28
-73.28
-84.83
-90.78
-89.97
-82.65
-70.4
-55.69
-41.1
-28.72
-19.65
-13.96
-10.98
-9.58
-8.58
-6.92
-3.78
1.35
8.65
17.83
28.05
37.91
45.83
50.36
50.73
46.98
39.98
31.03
21.49
12.42
4.39
-2.41
-8.1
-12.94
-17.16
-21.06
-24.98
-29.42
-34.9
-41.84
-50.34
-60.15
-70.71
-81.33
-91.37
-100.24
-107.32
-111.92
-113.32
-111.07
-105.29
-96.77
-86.81
-76.74
-67.48
-59.22
-51.49
-43.53
-34.79
-25.25
-15.4
-5.87
2.94
11.14
19.19
27.41
35.6
42.79
47.73
49.39
47.67
43.31
37.63
31.89
26.84
22.76
19.58
17.29
15.88
15.31
15.26
15.09
14.1
11.71
7.7
2.19
-4.49
-12.01
-20.05
-28.34
-36.62
-44.43
-51.22
-56.19
-58.58
-57.74
-53.5
-46.3
-37.22
-27.84
-19.73
-14.14
-11.59
-11.86
-14.25
-17.92
-22.15
-26.34
-30.05
-32.81
-34.55
-35.89
-38.43
-44.41
-55.69
-72.55
-93.08
-113.64
-130.17
-139.86
-141.9
-137.25
-127.55
-114.12
-97.45
-77.53
-54.56
-29.47
-3.93
20.09
40.71
56.22
65.17
66.57
60.46
48.41
33.53
19.73
10.48
7.76
11.66
20.96
34.19
50.49
69.58
91.18
114.05
135.68
152.94
163.33
166.27
163.64
159.2
157.12
160.41
169.68
182.97
196.64
206.78
210.56
207.08
197.19
182.68
165.11
145.24
122.96
98.07
71.14
43.87
18.74
-1.89
-16.74
-25.9
-30.48
-32.07
-32.14
-31.86
-32.17
-33.84
-37.5
-43.28
-50.73
-58.73
-65.92
-71.13
-73.67
-73.5
-70.98
-66.65
-61.04
-54.54
-47.5
-40.32
-33.56
-27.9
-23.93
-21.86
-21.32
-21.41
-21.04
-19.37
-16.03
-11.06
-4.62
3.21
12.38
22.67
33.43
43.61
52.14
58.22
61.7
62.98
62.77
61.82
60.73
59.82
59.13
58.35
56.84
53.89
49.07
42.54
35.2
28.37
23.24
20.38
19.43
19.27
18.47
15.86
10.99
4.21
-3.43
-10.62
-16.23
-19.61
-20.83
-20.73
-20.95
-23.83
-32.18
-48.64
-74.44
-108.19
-145.2
-178.1
-199.0
-202.29
-186.83
-156.34
-117.74
-78.27
-42.99
-13.79
9.79
28.91
44.07
54.93
61.13
63.23
63.01
62.81
64.35
67.86
72.06
74.97
75.06
72.11
67.27
62.44
59.35
58.73
60.08
61.99
62.84
61.5
57.62
51.67
44.39
36.37
27.61
17.63
5.82
-8.1
-23.67
-39.67
-54.52
-66.54
-74.36
-76.99
-73.82
-64.75
-50.44
-32.43
-13.09
5.01
19.89
30.86
38.51
44.11
48.61
52.03
53.48
51.76
46.17
36.96
25.13
12.0
-1.28
-13.79
-24.76
-33.27
-38.44
-39.64
-37.03
-31.84
-26.19
-22.57
-22.97
-28.12
-37.09
-47.55
-56.66
-62.15
-63.35
-61.36
-58.63
-57.96
-61.53
-70.3
-84.05
-101.18
-118.56
-131.5
-134.51
-123.08
-96.13
-57.67
-16.36
17.21
34.6
32.71
14.45
-13.28
-43.23
-70.81
-94.51
-114.35
-129.85
-139.14
-140.04
-131.85
-116.51
-98.11
-81.42
-69.29
-61.5
-55.46
-48.06
-37.69
-25.05
-12.43
-2.42
2.58
1.96
-2.99
-9.82
-16.02
-20.06
-21.75
-21.94
-21.87
-23.85
-29.24
-37.88
-48.12
-57.69
-64.95
-69.51
-72.34
-75.26
-82.13
-95.8
-116.98
-143.52
-171.44
-196.63
-215.94
-227.53
-218.49
-181.24
-116.1
-33.59
49.9
119.04
164.69
185.2
184.97
172.0
152.84
132.38
113.04
95.72
80.37
65.75
50.99
34.72
15.5
-8.72
-37.75
-68.15
-93.4
-106.77
-104.61
-88.04
-62.57
-35.35
-13.11
1.0
5.74
3.35
-2.27
-7.47
-9.54
-6.94
1.38
15.46
34.6
57.2
81.38
105.27
127.31
146.86
164.23
180.66
197.55
215.97
235.82
255.59
272.2
281.65
280.48
267.17
243.13
212.42
180.23
151.14
127.93
111.18
100.2
94.19
92.98
96.94
106.05
119.03
133.21
145.19
151.95
151.78
144.58
131.61
114.66
95.42
75.12
54.53
34.15
14.48
-3.86
-20.15
-33.63
-43.71
-50.11
-52.99
-53.12
-51.59
-49.6
-48.0
-47.33
-47.7
-48.87
-50.38
-51.73
-52.74
-53.29
-53.46
-53.21
-52.76
-52.5
-52.99
-54.78
-58.19
-63.3
-69.12
-73.94
-75.47
-72.07
-63.5
-51.02
-37.11
-24.31
-14.53
-7.32
-3.15
-0.8
1.46
4.73
8.4
9.73
7.81
-1.43
-20.98
-51.23
-88.91
-128.04
-161.23
-180.37
-179.7
-157.88
-118.73
-69.46
-18.79
25.43
57.55
74.9
77.85
69.14
53.07
34.08
16.19
1.94
-7.74
-13.31
-15.62
-15.3
-12.72
-8.28
-2.87
2.62
7.66
12.69
19.16
29.08
44.27
65.31
90.84
117.41
140.3
154.84
158.17
150.71
136.76
123.35
117.84
124.99
144.77
172.31
199.6
218.63
224.23
215.55
195.61
169.35
141.53
114.99
90.27
66.07
40.29
10.77
-24.2
-65.32
-111.37
-158.15
-198.64
-224.45
-229.07
-211.04
-175.61
-133.45
-96.46
-72.57
-62.39
-59.51
-54.11
-38.14
-8.77
31.11
75.36
117.83
154.44
183.29
203.18
212.51
209.17
191.51
160.0
117.96
71.23
26.51
-10.61
-37.26
-53.68
-62.75
-68.61
-74.78
-82.92
-92.28
-100.46
-104.9
-104.51
-100.36
-95.23
-92.05
-92.13
-94.4
-95.9
-93.42
-85.32
-72.49
-57.91
-45.25
-37.15
-34.1
-34.64
-36.37
-37.35
-37.13
-36.85
-38.7
-44.91
-56.86
-74.54
-96.66
-120.78
-144.03
-163.69
-177.73
-185.37
-187.11
-184.42
-178.95
-171.65
-162.28
-149.63
-132.31
-109.47
-81.29
-48.62
-12.52
26.19
66.66
107.26
144.89
175.04
192.93
195.24
181.48
154.21
118.19
78.67
40.06
5.07
-25.03
-49.84
-69.29
-83.38
-92.22
-96.35
-96.75
-94.55
-90.65
-85.33
-78.06
-67.9
-54.03
-36.39
-16.14
4.58
23.43
38.39
48.44
53.54
54.26
51.37
45.74
37.94
28.58
18.47
8.03
-2.33
-12.2
-21.14
-28.77
-34.65
-39.42
-44.26
-50.12
-58.07
-68.01
-78.46
-87.24
-92.4
-92.18
-87.45
-80.25
-72.52
-67.08
-66.03
-70.28
-79.78
-93.76
-109.6
-126.57
-144.22
-161.45
-178.45
-195.13
-210.81
-224.91
-237.62
-248.54
-260.84
-278.06
-287.29
-276.85
-238.96
-173.97
-91.02
-15.73
46.23
95.87
136.5
171.48
203.81
232.2
254.27
268.18
273.7
274.03
270.57
264.28
256.37
246.69
234.85
221.17
206.66
192.79
182.7
177.18
175.8
177.48
179.45
178.29
171.47
158.21
139.99
121.0
104.68
93.21
87.09
84.67
83.17
80.24
74.82
67.25
59.04
50.82
42.22
32.34
20.31
6.24
-8.38
-21.14
-29.84
-33.31
-32.39
-29.28
-26.31
-24.98
-25.45
-26.86
-28.13
-28.79
-29.21
-30.28
-32.72
-36.48
-40.72
-44.1
-45.46
-44.28
-40.96
-36.55
-32.27
-29.06
-27.12
-26.01
-24.81
-22.58
-18.79
-13.6
-7.76
-2.35
1.64
3.7
3.81
2.42
0.17
-2.43
-4.98
-7.26
-8.97
-9.83
-9.47
-7.83
-5.28
-2.67
-1.04
-1.18
-3.23
-6.47
-9.68
-11.57
-11.43
-9.47
-6.56
-3.86
-2.22
-1.97
-2.91
-4.56
-6.41
-7.98
-8.87
-8.77
-7.62
-5.65
-3.55
-2.11
-1.97
-3.27
-5.51
-7.88
-9.55
-9.99
-9.05
-6.85
-3.69
-0.0
3.65
6.71
8.66
9.4
9.24
8.79
8.62
8.91
9.3
9.1
7.77
5.17
1.79
-1.58
-4.24
-5.87
-6.62
-6.93
-7.22
-7.66
-8.23
-8.74
-9.13
-9.48
-10.01
-10.85
-11.94
-13.04
-13.73
-13.69
-12.8
-11.3
-9.6
-8.15
-7.17
-6.55
-5.94
-4.86
-3.07
-0.57
2.41
5.53
8.6
11.61
14.72
18.03
21.57
25.18
28.69
32.06
35.41
38.97
42.86
46.96
50.83
53.92
55.84
56.56
56.44
55.99
55.63
55.45
55.29
54.97
54.55
54.47
55.36
57.86
62.21
68.31
75.67
83.5
90.75
96.04
97.63
93.78
83.33
66.45
45.13
22.85
3.56
-9.8
-16.4
-17.74
-16.91
-17.16
-20.71
-27.99
-37.98
-48.95
-59.43
-68.75
-77.05
-84.74
-91.96
-98.26
-102.66
-104.07
-101.77
-95.77
-86.9
-76.39
-65.51
-55.31
-46.59
-40.18
-37.06
-38.24
-44.26
-54.67
-67.65
-80.42
-89.95
-93.89
-91.29
-82.61
-69.38
-53.58
-37.12
-21.41
-7.16
5.64
17.55
29.2
40.65
50.99
58.37
60.66
56.49
45.96
30.68
13.12
-4.41
-20.45
-34.22
-45.16
-52.43
-55.21
-53.21
-47.19
-38.56
-28.62
-17.64
-4.79
11.05
30.05
50.59
69.43
82.85
88.08
84.23
72.37
55.08
35.53
17.03
2.58
-5.37
-5.2
3.39
18.81
37.51
54.53
64.54
63.45
49.64
24.61
-7.7
-42.3
-74.9
-103.02
-126.15
-145.02
-160.46
-172.85
-182.01
-187.62
-189.65
-188.43
-184.4
-177.83
-168.79
-157.27
-143.59
-128.39
-112.44
-96.34
-80.12
-63.21
-44.91
-24.91
-3.6
17.78
37.42
53.56
64.89
71.14
73.04
72.09
69.88
67.57
65.22
61.77
55.38
44.31
27.92
7.18
-15.35
-36.48
-53.41
-64.72
-70.67
-72.75
-72.76
-71.84
-70.02
-66.14
-58.41
-45.08
-25.1
1.32
32.62
65.88
97.43
123.4
140.52
146.69
141.46
126.54
105.66
83.87
65.97
55.0
51.19
52.26
54.81
56.26
56.12
55.77
57.08
60.49
64.24
65.15
60.35
48.95
32.48
14.01
-3.48
-18.17
-29.75
-38.7
-45.49
-49.86
-50.8
-47.24
-38.79
-26.38
-12.33
0.28
8.53
10.81
7.36
0.21
-7.8
-14.02
-16.85
-15.77
-10.94
-2.7
8.73
22.96
39.11
55.63
70.6
82.27
89.52
92.23
91.03
86.9
80.65
72.74
63.37
52.89
42.08
32.02
23.6
16.94
11.39
6.02
0.5
-4.43
-7.2
-6.39
-1.76
5.57
13.47
19.96
23.97
25.6
25.53
24.24
21.66
17.26
10.47
0.94
-11.26
-25.63
-41.09
-55.89
-67.92
-75.31
-77.28
-74.48
-68.71
-61.86
-55.02
-48.13
-40.42
-31.43
-21.67
-12.8
-6.88
-5.31
-8.05
-13.41
-18.58
-20.36
-16.18
-4.72
13.28
34.86
55.21
68.91
71.59
61.29
39.2
8.99
-24.09
-54.61
-77.68
-89.6
-88.2
-73.31
-47.11
-13.85
20.97
52.19
76.38
92.63
102.3
107.86
111.8
115.79
120.61
126.22
132.05
136.89
138.92
135.86
125.62
107.15
81.03
49.61
16.34
-15.24
-42.56
-64.48
-81.11
-93.22
-101.46
-106.1
-107.08
-104.41
-98.49
-90.16
-80.48
-70.31
-60.08
-49.7
-38.83
-27.24
-15.21
-3.75
5.57
10.99
11.23
5.92
-4.15
-17.35
-31.7
-45.39
-57.29
-67.0
-74.66
-80.77
-85.87
-90.46
-94.89
-99.36
-103.9
-108.3
-111.89
-113.55
-111.79
-105.19
-92.9
-75.09
-52.99
-28.44
-3.33
20.96
43.65
64.25
82.19
96.6
106.66
112.04
113.27
111.65
108.67
105.38
101.94
97.77
92.02
84.24
74.66
64.2
54.08
45.36
38.62
33.83
30.54
28.06
25.84
23.52
21.07
18.61
16.43
14.79
13.9
13.88
14.65
15.9
17.07
17.54
16.74
14.33
10.27
4.75
-1.85
-9.15
-16.76
-24.24
-31.15
-37.09
-41.79
-45.11
-47.08
-47.8
-47.45
-46.21
-44.31
-41.94
-39.26
-36.32
-33.1
-29.65
-26.08
-22.65
-19.52
-16.62
-13.56
-9.7
-4.39
2.75
11.55
21.34
31.08
39.64
46.09
49.89
51.08
50.23
48.34
46.51
45.68
46.29
48.22
50.93
53.65
55.74
56.77
56.6
55.19
52.58
48.76
43.77
37.77
31.1
24.21
17.51
11.35
5.89
1.14
-2.94
-6.48
-9.5
-12.04
-14.11
-15.72
-16.9
-17.68
-18.14
-18.34
-18.4
-18.39
-18.45
-18.64
-19.02
-19.62
-20.42
-21.38
-22.51
-23.89
-25.68
-28.03
-31.02
-34.55
-38.33
-41.94
-44.93
-46.91
-47.72
-47.4
-46.19
-44.48
-42.78
-41.63
-41.46
-42.46
-44.47
-46.97
-49.22
-50.57
-50.61
-49.32
-47.08
-44.48
-42.16
-40.63
-40.11
-40.49
-41.31
-41.89
-41.54
-39.88
-36.98
-33.44
-30.12
-27.92
-27.41
-28.77
-31.71
-35.53
-39.28
-41.82
-42.12
-39.52
-33.96
-26.03
-16.68
-6.84
3.0
12.86
23.01
33.37
43.23
51.39
56.55
58.03
56.05
51.57
45.88
40.08
34.81
30.37
27.02
25.16
25.25
27.59
31.99
37.8
44.07
50.01
55.11
59.27
62.5
64.78
65.82
65.13
62.19
56.68
48.83
39.41
29.74
21.2
14.88
11.13
9.64
9.7
10.64
12.29
14.93
19.03
24.83
32.02
39.77
47.07
53.06
57.16
59.16
58.86
56.06
50.61
42.71
33.09
22.95
13.66
6.19
0.88
-2.7
-5.31
-7.62
-9.88
-11.91
-13.34
-13.97
-13.97
-13.68
-13.46
-13.33
-13.05
-12.29
-10.97
-9.45
-8.43
-8.74
-10.91
-15.02
-20.49
-26.34
-31.48
-35.01
-36.57
-36.29
-34.8
-32.84
-31.09
-29.93
-29.49
-29.83
-30.89
-32.71
-35.09
-37.64
-39.57
-40.04
-38.47
-34.94
-30.39
-26.18
-23.84
-24.13
-27.02
-31.61
-36.64
-41.04
-44.21
-46.17
-47.15
-47.44
-46.96
-45.33
-42.08
-36.91
-30.11
-22.42
-15.09
-9.37
-6.32
-6.41
-9.49
-14.87
-21.36
-27.71
-32.72
-35.63
-36.18
-34.76
-32.26
-29.68
-27.89
-27.1
-27.06
-27.03
-26.3
-24.44
-21.37
-17.29
-12.43
-7.12
-1.54
3.97
9.01
13.22
16.44
18.92
21.18
23.96
27.7
32.55
38.15
43.99
49.58
54.66
59.21
63.27
66.67
68.94
69.48
67.83
64.06
58.89
53.44
48.83
45.64
43.76
42.5
41.0
38.63
35.19
30.86
25.87
20.43
14.56
8.31
1.92
-4.24
-9.62
-13.73
-16.27
-17.23
-16.89
-15.79
-14.63
-14.09
-14.61
-16.18
-18.28
-19.92
-20.09
-18.02
-13.59
-7.37
-0.36
6.35
11.92
15.89
18.3
19.46
20.0
20.61
21.83
23.88
26.53
29.3
31.58
32.97
33.4
33.01
31.86
29.66
25.89
19.9
11.57
1.32
-9.85
-20.74
-30.26
-37.52
-41.94
-43.05
-40.71
-35.06
-26.83
-17.15
-7.41
1.1
7.57
11.62
13.49
13.55
12.27
10.05
7.22
4.04
0.67
-2.65
-5.81
-8.59
-10.85
-12.51
-13.6
-14.25
-14.54
-14.67
-14.63
-14.56
-14.62
-15.22
-16.84
-19.75
-23.85
-28.25
-31.79
-33.16
-31.67
-27.41
-21.24
-14.41
-8.0
-2.64
1.84
5.87
10.16
15.21
21.49
29.51
39.79
52.83
68.5
86.09
104.01
120.34
133.16
141.09
143.55
140.56
132.73
120.68
105.27
87.33
67.89
48.01
28.64
10.69
-5.15
-18.09
-27.61
-33.43
-35.9
-35.97
-34.93
-34.15
-34.39
-35.94
-38.27
-40.73
-42.61
-43.61
-43.79
-43.33
-42.6
-41.66
-40.53
-38.89
-36.46
-32.98
-28.38
-22.84
-16.48
-9.54
-1.98
6.25
15.3
25.12
35.45
45.97
56.2
65.91
74.79
82.64
89.04
93.36
94.95
93.12
87.64
78.59
66.67
52.77
37.95
23.1
8.71
-5.02
-18.18
-30.7
-42.5
-53.1
-62.08
-69.04
-73.85
-76.76
-78.04
-78.21
-77.44
-76.06
-74.13
-72.0
-70.07
-68.78
-68.64
-69.63
-71.62
-73.76
-75.18
-74.86
-72.13
-66.93
-59.58
-51.04
-42.09
-33.63
-26.12
-19.9
-15.16
-12.05
-10.74
-11.08
-12.98
-15.99
-19.93
-24.67
-30.5
-37.87
-46.98
-57.83
-69.47
-80.78
-90.16
-96.51
-99.33
-98.84
-96.05
-92.11
-88.51
-86.26
-86.36
-89.2
-94.8
-102.58
-111.29
-119.5
-125.62
-128.84
-128.9
-126.23
-121.18
-113.5
-102.22
-85.91
-63.9
-36.96
-7.92
19.24
40.6
53.88
59.34
59.38
57.69
57.57
61.3
69.65
82.37
98.56
116.74
134.94
150.59
161.24
165.06
161.88
153.23
141.95
131.19
123.24
119.04
118.14
119.23
120.74
121.44
120.51
117.59
112.7
106.08
98.27
89.92
81.82
74.64
68.9
64.79
62.17
60.75
60.01
59.61
59.2
58.64
57.83
56.8
55.64
54.39
53.28
52.39
51.95
52.04
52.7
53.75
54.75
55.14
54.22
51.58
47.04
40.93
33.91
26.77
20.29
14.93
10.95
8.12
6.18
4.58
2.84
0.59
-2.45
-6.21
-10.56
-15.11
-19.6
-23.73
-27.49
-31.07
-34.8
-39.19
-44.5
-50.87
-57.85
-64.73
-70.51
-74.27
-75.48
-73.94
-70.02
-64.1
-56.77
-48.37
-39.2
-29.6
-19.89
-10.62
-2.12
5.21
11.51
16.93
21.82
26.46
30.87
35.06
38.79
42.07
44.82
47.22
49.44
51.69
54.13
56.74
59.51
62.05
64.08
65.13
65.09
64.01
62.16
60.03
57.86
55.94
54.15
52.42
50.43
47.81
44.01
38.33
30.35
19.69
6.74
-7.82
-22.84
-37.2
-50.12
-61.12
-70.37
-78.01
-84.44
-89.65
-93.62
-96.06
-96.78
-95.83
-93.32
-89.72
-85.29
-80.45
-75.31
-70.03
-64.75
-59.65
-55.03
-50.95
-47.5
-44.3
-40.98
-37.02
-32.15
-26.4
-20.07
-13.83
-8.18
-3.65
-0.27
2.04
3.6
4.73
5.48
5.85
5.44
4.03
1.35
-2.46
-7.02
-11.75
-15.94
-19.11
-20.77
-20.83
-19.21
-16.13
-11.89
-6.86
-1.49
4.0
9.27
14.2
18.52
22.02
24.39
25.32
24.7
22.37
18.54
13.33
7.15
0.39
-6.47
-12.95
-18.63
-23.03
-25.92
-27.01
-26.41
-24.34
-21.39
-18.26
-15.5
-13.59
-12.51
-12.22
-12.41
-12.92
-13.52
-14.01
-14.22
-13.77
-12.57
-10.48
-7.69
-4.34
-0.7
3.1
7.05
11.05
15.14
19.03
22.48
25.06
26.48
26.59
25.4
23.18
20.19
16.87
13.38
9.97
6.69
3.63
0.97
-1.13
-2.33
-2.53
-1.58
0.4
3.25
6.8
10.82
15.26
19.92
24.8
29.66
34.47
39.12
43.65
48.2
52.76
57.31
61.44
64.81
66.99
67.92
67.79
67.01
66.15
65.53
65.45
65.79
66.49
67.23
67.81
67.96
67.39
65.89
63.18
59.3
54.33
48.66
42.75
37.08
32.06
27.78
24.29
21.31
18.7
16.2
13.6
10.53
6.43
0.75
-7.13
-17.26
-29.38
-42.57
-55.78
-67.97
-78.31
-86.42
-92.05
-95.35
-96.45
-95.67
-93.29
-89.57
-84.8
-79.12
-72.88
-66.37
-60.14
-54.61
-50.11
-46.68
-44.17
-42.45
-41.35
-41.02
-41.37
-42.33
-43.48
-44.27
-44.26
-43.17
-41.1
-38.21
-34.8
-30.88
-26.37
-21.15
-15.19
-8.83
-2.45
3.37
8.33
12.12
14.68
15.89
15.65
13.94
10.77
6.52
1.54
-3.57
-8.45
-12.84
-16.66
-19.97
-22.6
-24.41
-24.93
-23.84
-20.86
-16.13
-10.19
-3.86
1.85
6.33
9.24
10.82
11.36
11.14
10.13
7.98
4.38
-0.88
-7.42
-14.55
-21.23
-26.59
-30.07
-31.49
-31.09
-29.21
-26.29
-22.56
-18.27
-13.55
-8.66
-3.93
0.36
3.87
6.58
8.44
9.58
9.98
9.63
8.47
6.43
3.67
0.34
-3.2
-6.68
-9.77
-12.24
-14.02
-15.06
-15.54
-15.59
-15.51
-15.42
-15.39
-15.37
-15.28
-15.03
-14.52
-13.81
-12.83
-11.74
-10.56
-9.41
-8.39
-7.59
-7.13
-6.95
-7.05
-7.22
-7.37
-7.38
-7.27
-7.22
-7.34
-7.74
-8.24
-8.6
-8.37
-7.24
-5.11
-2.09
1.4
4.94
8.04
10.42
11.85
12.31
11.79
10.26
7.77
4.32
0.16
-4.44
-9.04
-13.32
-17.05
-20.14
-22.69
-24.74
-26.45
-27.78
-28.73
-29.22
-29.18
-28.67
-27.78
-26.82
-26.08
-25.9
-26.39
-27.46
-28.79
-29.91
-30.46
-30.11
-28.79
-26.44
-23.19
-19.2
-14.7
-10.02
-5.38
-1.05
2.9
6.34
9.19
11.29
12.52
12.88
12.49
11.73
10.9
10.32
10.04
10.0
10.08
10.14
10.18
10.06
9.74
9.02
7.82
6.19
4.3
2.45
0.8
-0.64
-2.19
-4.1
-6.58
-9.5
-12.43
-14.78
-15.97
-15.7
-13.84
-10.65
-6.39
-1.48
3.7
8.78
13.36
17.23
20.22
22.42
23.96
25.09
25.95
26.52
26.73
26.37
25.38
23.79
21.91
20.08
18.6
17.6
16.95
16.4
15.59
14.43
12.88
11.17
9.5
7.93
6.43
4.77
2.77
0.27
-2.67
-5.88
-9.03
-11.7
-13.51
-14.08
-13.24
-10.95
-7.42
-2.94
2.08
7.22
12.12
16.41
19.91
22.39
23.88
24.43
24.24
23.51
22.41
21.04
19.39
17.57
15.61
13.67
11.87
10.32
9.13
8.29
7.76
7.4
7.01
6.37
5.35
3.95
2.26
0.54
-1.11
-2.59
-4.11
-5.92
-8.44
-11.98
-16.69
-22.58
-29.33
-36.47
-43.2
-48.81
-52.68
-54.61
-54.85
-53.97
-52.71
-51.49
-50.54
-49.65
-48.59
-47.26
-45.76
-44.39
-43.37
-42.87
-42.83
-43.35
-44.54
-46.57
-49.43
-52.55
-55.08
-56.06
-55.24
-53.11
-50.87
-49.63
-49.79
-50.75
-51.15
-49.85
-46.37
-41.3
-35.69
-30.38
-25.5
-20.38
-14.19
-6.27
3.31
14.19
25.72
37.38
48.82
59.68
69.65
78.3
85.41
90.82
94.69
97.24
98.71
99.37
99.29
98.7
97.61
96.19
94.43
92.38
90.05
87.32
84.1
80.12
75.34
69.84
64.16
59.05
55.22
53.11
52.54
53.06
54.0
55.13
56.48
58.49
61.61
66.14
72.21
79.57
87.88
96.27
103.51
107.89
107.69
101.72
89.69
72.59
52.17
30.69
10.02
-8.53
-24.32
-37.27
-47.55
-55.58
-61.68
-66.33
-69.75
-71.96
-72.71
-71.48
-67.8
-61.24
-51.86
-39.98
-26.41
-12.16
1.62
13.86
23.8
30.92
35.2
36.68
35.7
32.57
27.6
21.12
13.37
4.72
-4.53
-13.83
-22.68
-30.43
-36.56
-40.8
-43.11
-43.83
-43.17
-41.41
-38.57
-34.66
-29.81
-24.29
-18.59
-13.08
-8.07
-3.54
0.53
4.18
7.31
9.76
11.47
12.45
13.04
13.5
14.19
15.27
16.77
18.55
20.35
21.95
22.98
23.27
22.54
20.74
17.84
13.9
9.17
3.92
-1.28
-5.9
-9.29
-11.1
-11.23
-9.88
-7.51
-4.48
-1.15
2.4
6.06
9.8
13.38
16.46
18.76
19.96
20.1
19.27
17.84
16.15
14.51
13.08
11.78
10.52
9.04
7.4
5.65
4.12
3.13
2.85
3.3
4.2
5.27
6.13
6.71
6.99
7.14
7.45
8.23
9.94
12.93
17.53
23.68
31.15
39.47
48.16
57.02
66.13
75.87
86.58
98.38
110.75
122.58
132.26
137.92
138.03
131.58
118.59
99.95
77.37
52.85
28.37
5.58
-14.41
-30.86
-43.52
-52.36
-57.7
-60.14
-60.5
-59.71
-58.49
-57.37
-56.38
-55.35
-53.84
-51.53
-48.27
-44.1
-39.27
-34.03
-28.71
-23.45
-18.43
-13.72
-9.4
-5.68
-2.74
-0.89
-0.31
-1.15
-3.32
-6.61
-10.74
-15.35
-20.26
-25.21
-30.14
-34.92
-39.5
-43.84
-47.93
-51.84
-55.48
-58.86
-61.74
-64.0
-65.4
-65.89
-65.48
-64.24
-62.31
-59.62
-56.08
-51.35
-45.25
-37.69
-28.94
-19.5
-9.97
-0.97
7.27
14.58
21.05
26.63
31.16
34.44
36.27
36.77
36.2
35.19
34.22
33.66
33.46
33.21
32.48
30.87
28.44
25.46
22.5
19.97
18.08
16.83
16.06
15.82
16.21
17.71
20.59
25.0
30.59
36.7
42.61
47.58
51.31
53.54
54.33
53.65
51.57
48.25
43.98
39.32
34.63
30.11
25.33
19.55
11.93
1.99
-10.07
-23.5
-37.08
-49.79
-60.83
-69.86
-76.84
-81.94
-85.36
-87.26
-87.83
-87.13
-85.28
-82.24
-78.04
-72.84
-66.88
-60.6
-54.29
-48.21
-42.31
-36.56
-30.9
-25.42
-20.38
-15.94
-12.22
-9.03
-6.18
-3.43
-0.76
1.75
3.94
5.72
7.18
8.39
9.48
10.35
10.87
10.83
10.17
9.03
7.67
6.59
6.12
6.54
7.75
9.42
10.98
11.79
11.43
9.69
6.9
3.57
0.41
-1.92
-2.97
-2.45
-0.43
2.95
7.13
11.5
15.24
17.66
18.38
17.34
14.94
11.68
8.13
4.68
1.63
-0.81
-2.49
-3.29
-3.35
-2.9
-2.35
-1.98
-1.95
-2.19
-2.59
-3.18
-4.15
-5.89
-8.6
-12.24
-16.3
-20.04
-22.74
-23.9
-23.5
-21.73
-19.08
-15.92
-12.66
-9.59
-6.95
-4.95
-3.57
-2.73
-2.11
-1.47
-0.64
0.32
1.24
2.01
2.5
2.92
3.49
4.56
6.34
8.93
12.22
15.84
19.4
22.37
24.55
25.88
26.7
27.46
28.68
30.83
34.06
38.27
42.76
46.6
48.65
48.14
45.01
39.84
33.79
27.82
22.61
18.2
14.51
11.54
9.57
8.99
9.66
11.03
11.89
11.17
8.27
3.4
-2.56
-8.64
-14.09
-18.87
-23.28
-28.01
-33.53
-40.07
-47.48
-55.32
-63.18
-70.61
-77.52
-83.78
-89.41
-94.23
-98.01
-100.64
-102.14
-102.95
-103.53
-104.48
-105.93
-107.67
-109.14
-109.62
-108.61
-105.71
-100.92
-94.27
-86.01
-76.38
-65.66
-54.16
-42.04
-29.49
-16.42
-2.79
11.56
26.55
41.88
56.98
70.98
83.05
92.36
98.57
101.71
102.44
101.78
100.69
99.9
99.42
98.95
97.88
96.06
93.82
91.97
91.33
92.04
93.47
94.16
92.62
87.75
79.3
67.75
54.06
39.39
24.8
11.36
-0.07
-8.78
-14.57
-17.79
-19.27
-20.18
-21.44
-23.65
-26.76
-30.38
-33.96
-37.22
-40.3
-43.73
-48.31
-54.51
-62.44
-71.53
-80.96
-89.95
-97.99
-104.96
-110.72
-115.03
-117.25
-116.73
-113.03
-106.24
-96.94
-85.85
-73.61
-60.38
-46.18
-30.8
-14.3
2.92
20.14
36.36
50.73
62.52
71.57
77.98
82.14
84.29
84.43
82.37
77.86
71.09
62.59
53.33
44.24
36.0
28.92
22.85
17.72
13.37
9.97
7.58
6.24
5.81
5.96
6.46
7.01
7.59
8.07
8.38
8.34
7.75
6.52
4.64
2.42
0.08
-2.08
-4.13
-6.25
-8.77
-11.93
-15.59
-19.37
-22.53
-24.46
-24.64
-23.08
-20.15
-16.45
-12.67
-9.18
-6.16
-3.39
-0.73
1.9
4.23
5.8
6.26
5.45
3.79
1.88
0.48
-0.03
0.37
1.28
2.09
2.32
1.6
0.08
-1.98
-3.92
-5.12
-5.07
-3.59
-1.02
2.1
4.91
6.89
7.75
7.66
7.04
6.3
5.79
5.61
5.87
6.53
7.68
9.23
10.96
12.49
13.31
13.17
12.0
10.17
8.14
6.41
5.22
4.46
3.83
2.89
1.51
-0.31
-2.2
-3.82
-4.92
-5.58
-6.31
-7.65
-10.11
-13.71
-18.08
-22.43
-26.0
-28.27
-29.05
-28.66
-27.57
-26.5
-26.01
-26.5
-28.07
-30.41
-33.01
-35.06
-35.94
-35.1
-32.4
-27.98
-22.22
-15.65
-8.81
-2.33
3.37
7.9
11.18
13.26
14.42
14.95
15.04
14.83
14.27
13.4
12.12
10.52
8.71
6.79
4.92
3.15
1.62
0.34
-0.57
-1.16
-1.49
-1.73
-2.14
-2.88
-4.1
-5.69
-7.58
-9.55
-11.46
-13.24
-14.74
-15.86
-16.28
-15.77
-14.07
-11.19
-7.39
-3.07
1.24
5.2
8.5
11.18
13.21
14.66
15.53
15.81
15.59
14.92
14.03
13.01
12.01
11.06
10.21
9.51
9.02
8.85
8.9
9.08
9.11
8.77
7.96
6.73
5.28
3.8
2.46
1.2
-0.01
-1.31
-2.78
-4.42
-6.29
-8.35
-10.66
-13.0
-15.09
-16.43
-16.55
-15.17
-12.32
-8.4
-3.91
0.57
4.76
8.52
11.88
14.84
17.3
19.12
20.11
20.31
19.81
18.95
17.93
16.95
16.03
15.1
14.18
13.23
12.38
11.7
11.24
10.97
10.79
10.59
10.18
9.5
8.45
7.1
5.58
4.06
2.74
1.6
0.55
-0.7
-2.25
-4.13
-6.12
-7.93
-9.43
-10.59
-11.71
-13.06
-14.89
-17.1
-19.42
-21.37
-22.42
-22.26
-20.7
-17.93
-14.17
-9.91
-5.51
-1.32
2.46
5.75
8.43
10.49
11.78
12.33
12.21
11.68
11.07
10.6
10.39
10.29
10.21
10.0
9.8
9.72
9.89
10.27
10.62
10.7
10.21
9.14
7.54
5.64
3.68
1.83
0.25
-1.05
-2.07
-3.01
-4.0
-5.22
-6.75
-8.53
-10.49
-12.42
-14.16
-15.4
-15.86
-15.18
-13.18
-9.96
-5.82
-1.44
2.6
5.74
7.88
9.12
9.79
10.24
10.55
10.73
10.58
10.02
9.04
7.78
6.44
5.15
4.01
2.97
2.09
1.35
0.85
0.51
0.19
-0.3
-1.18
-2.45
-4.09
-5.85
-7.59
-9.22
-10.73
-12.27
-13.84
-15.5
-17.04
-18.24
-18.71
-18.11
-16.2
-12.99
-8.86
-4.28
0.06
3.78
6.65
8.79
10.4
11.64
12.56
13.0
12.85
11.99
10.56
8.8
7.02
5.52
4.41
3.76
3.34
3.03
2.62
2.05
1.36
0.67
0.15
-0.26
-0.63
-1.27
-2.32
-3.93
-5.93
-8.02
-9.93
-11.35
-12.25
-12.54
-12.25
-11.27
-9.5
-6.93
-3.68
-0.15
3.27
6.13
8.31
9.8
10.77
11.42
11.78
11.88
11.55
10.8
9.62
8.22
6.81
5.61
4.77
4.29
4.18
4.22
4.32
4.27
3.97
3.33
2.34
1.07
-0.45
-2.07
-3.79
-5.56
-7.4
-9.25
-11.04
-12.62
-13.73
-14.24
-13.95
-12.91
-11.14
-8.76
-5.86
-2.51
1.08
4.71
7.96
10.57
12.25
13.01
13.06
12.61
11.99
11.32
10.76
10.26
9.9
9.67
9.5
9.32
8.9
8.2
7.19
6.1
5.14
4.53
4.26
4.1
3.76
2.92
1.59
-0.12
-1.83
-3.28
-4.4
-5.33
-6.42
-7.89
-9.89
-12.2
-14.48
-16.26
-17.13
-16.92
-15.55
-13.22
-10.04
-6.32
-2.26
1.82
5.67
9.03
11.62
13.34
14.08
13.96
13.15
11.99
10.82
9.88
9.35
9.08
8.93
8.6
7.98
7.08
6.11
5.37
5.01
5.13
5.48
5.88
6.02
5.77
5.11
4.12
2.95
1.62
0.22
-1.31
-2.85
-4.38
-5.77
-6.98
-8.14
-9.34
-10.77
-12.31
-13.77
-14.68
-14.66
-13.55
-11.41
-8.63
-5.59
-2.66
0.06
2.53
4.78
6.79
8.38
9.49
9.99
10.0
9.62
9.02
8.3
7.56
6.91
6.34
5.97
5.66
5.39
5.01
4.5
3.91
3.31
2.88
2.56
2.38
2.08
1.55
0.7
-0.39
-1.5
-2.39
-2.82
-2.88
-2.73
-2.78
-3.33
-4.47
-6.07
-7.79
-9.33
-10.39
-10.88
-10.67
-9.72
-7.95
-5.37
-2.22
1.2
4.34
6.86
8.52
9.43
9.84
10.01
10.11
10.04
9.71
8.91
7.67
6.13
4.57
3.29
2.41
2.03
1.95
2.04
2.08
1.98
1.73
1.39
1.05
0.66
0.21
-0.46
-1.38
-2.48
-3.58
-4.48
-5.14
-5.62
-6.25
-7.17
-8.48
-9.91
-11.07
-11.53
-10.97
-9.44
-7.1
-4.4
-1.63
0.92
3.13
4.97
6.4
7.43
7.94
7.98
7.53
6.73
5.72
4.67
3.71
2.86
2.19
1.59
0.99
0.26
-0.61
-1.56
-2.44
-3.03
-3.25
-3.07
-2.7
-2.33
-2.21
-2.52
-3.31
-4.6
-6.21
-7.98
-9.49
-10.47
-10.56
-9.61
-7.68
-4.95
-1.83
1.34
4.16
6.48
8.15
9.21
9.71
9.69
9.25
8.38
7.28
6.04
4.91
4.1
3.7
3.76
4.09
4.59
4.99
5.13
4.82
3.98
2.6
0.77
-1.24
-3.24
-4.94
-6.3
-7.31
-8.07
-8.57
-8.65
-8.1
-6.58
-4.12
-0.84
2.81
6.33
9.33
11.5
12.74
12.91
11.98
9.9
6.81
3.07
-0.81
-4.29
-7.04
-8.9
-10.06
-10.72
-11.16
-11.49
-11.77
-12.08
-12.38
-12.76
-13.13
-13.51
-13.83
-14.09
-14.35
-14.66
-15.13
-15.62
-16.04
-16.03
-15.39
-13.94
-11.72
-8.96
-5.91
-2.91
-0.08
2.43
4.59
6.3
7.45
8.0
7.95
7.52
6.89
6.36
5.94
5.63
5.29
4.76
4.08
3.27
2.55
1.92
1.42
0.89
0.15
-0.88
-2.22
-3.64
-4.99
-6.04
-6.85
-7.5
-8.27
-9.34
-10.72
-12.29
-13.68
-14.64
-14.88
-14.36
-13.11
-11.22
-8.8
-5.95
-2.86
0.29
3.14
5.47
7.13
8.14
8.71
9.03
9.34
9.62
9.89
10.01
9.96
9.77
9.52
9.35
9.28
9.39
9.58
9.86
10.11
10.27
10.25
9.96
9.4
8.52
7.47
6.3
5.14
4.04
2.97
1.92
0.76
-0.47
-1.84
-3.25
-4.7
-6.11
-7.42
-8.64
-9.74
-10.88
-12.02
-13.16
-14.06
-14.42
-13.94
-12.45
-10.11
-7.18
-4.15
-1.29
1.19
3.31
5.12
6.59
7.7
8.31
8.47
8.22
7.8
7.37
7.05
6.9
6.82
6.79
6.73
6.72
6.68
6.67
6.67
6.61
6.51
6.24
5.78
5.0
3.95
2.68
1.35
0.16
-0.87
-1.69
-2.51
-3.38
-4.39
-5.43
-6.39
-7.24
-7.96
-8.73
-9.57
-10.58
-11.58
-12.43
-12.9
-12.79
-12.01
-10.44
-8.28
-5.65
-2.92
-0.34
1.9
3.74
5.27
6.53
7.58
8.28
8.58
8.4
7.88
7.24
6.67
6.36
6.2
6.12
5.92
5.59
5.17
4.84
4.74
4.84
5.04
4.99
4.53
3.52
2.15
0.69
-0.59
-1.51
-2.22
-2.82
-3.61
-4.58
-5.7
-6.84
-7.85
-8.8
-9.67
-10.58
-11.39
-11.97
-12.01
-11.3
-9.74
-7.39
-4.59
-1.65
1.01
3.22
4.89
6.13
7.09
7.8
8.3
8.4
8.12
7.46
6.69
6.08
5.8
5.88
6.07
6.16
5.9
5.37
4.7
4.12
3.78
3.61
3.51
3.26
2.81
2.07
1.14
0.09
-0.98
-1.9
-2.63
-3.08
-3.42
-3.79
-4.39
-5.3
-6.45
-7.69
-8.84
-9.9
-10.77
-11.48
-11.81
-11.56
-10.57
-8.78
-6.45
-3.82
-1.28
1.09
3.22
5.23
7.11
8.75
10.04
10.78
11.01
10.74
10.13
9.23
8.13
6.9
5.62
4.51
3.65
3.21
3.13
3.36
3.71
3.99
4.09
3.9
3.48
2.85
2.18
1.61
1.27
1.17
1.19
1.16
0.82
0.09
-1.08
-2.52
-4.02
-5.39
-6.42
-7.12
-7.53
-7.99
-8.68
-9.78
-11.17
-12.46
-13.18
-12.83
-11.35
-8.87
-5.92
-2.94
-0.28
1.98
3.98
5.74
7.24
8.23
8.59
8.28
7.57
6.86
6.47
6.6
7.06
7.61
7.87
7.73
7.23
6.59
6.1
5.83
5.81
5.82
5.79
5.61
5.35
5.02
4.6
4.07
3.31
2.38
1.31
0.35
-0.39
-0.82
-1.01
-1.16
-1.38
-1.85
-2.5
-3.37
-4.35
-5.42
-6.6
-7.87
-9.3
-10.78
-12.32
-13.63
-14.56
-14.89
-14.5
-13.49
-11.95
-10.18
-8.23
-6.24
-4.1
-1.81
0.53
2.77
4.59
5.84
6.47
6.72
6.8
6.93
7.14
7.27
7.22
6.85
6.33
5.81
5.58
5.72
6.22
6.89
7.39
7.61
7.36
6.79
6.05
5.38
4.87
4.49
4.12
3.52
2.68
1.6
0.49
-0.47
-1.21
-1.73
-2.15
-2.51
-2.95
-3.4
-3.9
-4.41
-4.95
-5.53
-6.11
-6.79
-7.61
-8.79
-10.31
-12.12
-13.87
-15.12
-15.56
-15.0
-13.64
-11.68
-9.44
-7.01
-4.4
-1.64
1.17
3.66
5.54
6.47
6.53
5.9
4.99
4.16
3.59
3.36
3.29
3.36
3.47
3.68
4.06
4.6
5.21
5.63
5.75
5.4
4.77
4.05
3.5
3.27
3.24
3.24
2.97
2.39
1.5
0.55
-0.31
-1.01
-1.59
-2.24
-3.02
-3.98
-4.91
-5.71
-6.24
-6.53
-6.75
-7.06
-7.73
-8.81
-10.34
-12.13
-13.96
-15.45
-16.2
-15.91
-14.41
-11.9
-8.69
-5.31
-2.13
0.63
2.91
4.8
6.24
7.21
7.5
7.13
6.2
5.04
4.07
3.59
3.72
4.3
5.14
5.96
6.63
7.07
7.3
7.34
7.16
6.8
6.15
5.31
4.32
3.29
2.31
1.42
0.68
0.0
-0.61
-1.29
-2.02
-2.82
-3.65
-4.51
-5.47
-6.61
-8.06
-9.72
-11.49
-13.08
-14.3
-15.12
-15.67
-16.22
-16.92
-17.81
-18.63
-19.04
-18.63
-17.2
-14.76
-11.5
-7.92
-4.49
-1.78
-0.16
0.14
-0.67
-2.01
-3.16
-3.28
-1.97
0.8
4.51
8.45
11.86
14.3
15.7
16.21
16.19
15.83
15.35
14.78
14.22
13.71
13.27
12.84
12.28
11.51
10.45
9.29
8.23
7.53
7.29
7.43
7.76
7.99
8.01
7.76
7.36
6.87
6.31
5.65
4.75
3.61
2.17
0.62
-0.96
-2.43
-3.76
-4.97
-6.1
-7.23
-8.3
-9.44
-10.6
-11.89
-13.29
-14.71
-16.06
-17.06
-17.56
-17.29
-16.25
-14.36
-11.77
-8.67
-5.29
-1.99
0.99
3.32
4.99
5.98
6.44
6.54
6.44
6.33
6.25
6.41
6.78
7.44
8.23
9.02
9.59
9.74
9.51
8.9
8.18
7.52
7.14
7.09
7.31
7.67
7.91
7.89
7.42
6.51
5.17
3.54
1.78
0.04
-1.53
-2.93
-4.1
-5.14
-6.09
-7.02
-8.03
-9.12
-10.43
-11.85
-13.37
-14.7
-15.59
-15.75
-14.97
-13.3
-10.87
-8.04
-5.09
-2.35
0.08
2.17
3.98
5.62
7.07
8.3
9.09
9.35
9.0
8.17
7.11
6.04
5.21
4.62
4.37
4.36
4.61
5.02
5.47
5.78
5.67
5.05
3.89
2.47
1.05
-0.05
-0.71
-1.0
-1.06
-1.18
-1.51
-2.24
-3.36
-4.87
-6.68
-8.69
-10.85
-12.98
-14.98
-16.57
-17.6
-17.85
-17.19
-15.61
-13.15
-10.08
-6.6
-3.11
0.16
3.04
5.47
7.46
8.99
10.07
10.57
10.57
10.11
9.46
8.86
8.42
8.18
7.91
7.53
6.88
6.11
5.36
4.84
4.64
4.69
4.86
4.88
4.64
4.0
2.99
1.66
0.15
-1.35
-2.74
-3.88
-4.86
-5.77
-6.87
-8.32
-10.16
-12.27
-14.3
-15.95
-16.86
-16.94
-16.18
-14.71
-12.65
-10.03
-6.94
-3.46
0.12
3.53
6.44
8.77
10.55
11.95
13.14
14.11
14.84
15.19
15.2
14.95
14.62
14.37
14.15
13.85
13.22
12.2
10.8
9.25
7.81
6.68
5.99
5.57
5.27
4.81
4.06
3.0
1.78
0.61
-0.39
-1.15
-1.85
-2.61
-3.6
-4.78
-6.07
-7.34
-8.49
-9.65
-10.93
-12.57
-14.51
-16.57
-18.36
-19.42
-19.53
-18.58
-16.77
-14.31
-11.44
-8.24
-4.76
-1.1
2.63
6.07
8.96
11.02
12.29
12.88
13.07
13.12
13.17
13.34
13.54
13.8
14.0
14.14
14.2
14.15
14.04
13.83
13.64
13.38
13.08
12.7
12.3
11.97
11.75
11.64
11.43
11.03
10.22
9.09
7.81
6.63
5.79
5.28
5.06
4.8
4.36
3.57
2.47
1.17
-0.27
-1.67
-3.05
-4.32
-5.59
-6.82
-8.1
-9.46
-10.85
-12.24
-13.34
-13.93
-13.65
-12.45
-10.4
-7.86
-5.31
-3.06
-1.37
-0.08
0.9
1.8
2.67
3.54
4.35
5.02
5.58
5.94
6.19
6.29
6.34
6.41
6.59
6.98
7.56
8.37
9.22
10.06
10.71
11.14
11.31
11.23
11.01
10.63
10.2
9.68
9.16
8.72
8.48
8.53
8.71
8.84
8.5
7.49
5.73
3.46
1.02
-1.29
-3.29
-5.13
-6.93
-8.9
-10.94
-12.91
-14.61
-15.92
-16.91
-17.62
-18.14
-18.28
-17.82
-16.38
-13.8
-10.16
-5.8
-1.29
2.87
6.23
8.67
10.18
10.91
11.04
10.61
9.73
8.34
6.52
4.34
2.04
-0.14
-1.97
-3.21
-3.82
-3.77
-3.29
-2.56
-1.86
-1.34
-1.08
-1.13
-1.37
-1.74
-2.02
-2.14
-2.0
-1.7
-1.41
-1.3
-1.56
-2.13
-2.89
-3.56
-3.98
-4.1
-4.01
-3.94
-3.99
-4.32
-4.83
-5.55
-6.35
-7.13
-7.8
-8.26
-8.53
-8.64
-8.75
-8.77
-8.57
-7.83
-6.28
-3.83
-0.64
2.85
6.33
9.54
12.63
15.78
19.14
22.6
25.65
27.7
28.18
26.99
24.43
21.22
18.18
15.92
14.81
14.67
15.25
16.02
16.59
16.67
16.12
15.05
13.58
12.01
10.47
9.15
8.04
7.15
6.46
5.95
5.64
5.43
5.33
5.25
5.23
5.24
5.24
5.14
4.74
3.92
2.55
0.79
-1.28
-3.44
-5.65
-7.98
-10.5
-13.38
-16.54
-19.95
-23.4
-26.75
-29.81
-32.38
-34.27
-35.22
-35.13
-33.88
-31.57
-28.29
-24.32
-20.05
-15.89
-12.29
-9.45
-7.45
-5.98
-4.75
-3.43
-1.93
-0.43
0.86
1.66
2.06
2.22
2.52
3.19
4.21
5.41
6.41
7.03
7.16
7.06
6.97
7.12
7.52
7.93
8.08
7.71
6.95
6.0
5.25
4.86
4.84
5.0
5.01
4.78
4.23
3.57
2.87
2.22
1.55
0.69
-0.34
-1.59
-2.83
-4.02
-5.03
-5.92
-6.76
-7.56
-8.33
-8.94
-9.43
-9.78
-10.14
-10.54
-10.95
-11.25
-11.2
-10.71
-9.64
-8.07
-5.97
-3.46
