value
2097152.0
2097152.0
2148668.0
2148687.0
2148681.0
2148592.0
2148634.0
2148695.0
2148646.0
2148714.0
2148648.0
2119769.0
2119802.0
2119788.0
2119845.0
2119786.0
2107689.0
2107603.0
2107684.0
2107695.0
2107604.0
2124100.0
2124174.0
2124145.0
2124130.0
2124093.0
2124140.0
2124083.0
2124087.0
2124259.0
2124220.0
2124095.0
2124205.0
2124106.0
2124029.0
2124048.0
2124008.0
2124050.0
2124111.0
2124051.0
2124075.0
2124003.0
2124189.0
2124110.0
2123973.0
2124106.0
2124226.0
2124008.0
2124066.0
2124160.0
2124171.0
2124108.0
2124020.0
2123988.0
2124047.0
2123915.0
2124033.0
2124014.0
2124012.0
2124024.0
2123940.0
2124122.0
2124021.0
2124021.0
2124019.0
2124009.0
2124121.0
2124028.0
2123992.0
2123978.0
2124003.0
2123972.0
2123932.0
2123985.0
2123923.0
2123965.0
2123954.0
2124147.0
2123966.0
2123969.0
2123926.0
2123970.0
2123927.0
2123892.0
2123964.0
2123952.0
2123940.0
2124128.0
2123958.0
2123989.0
2124027.0
2124037.0
2124172.0
2124038.0
2123930.0
2123979.0
2124075.0
2123855.0
2123974.0
2124144.0
2123904.0
2123997.0
2123918.0
2124116.0
2123970.0
2123950.0
2123937.0
2123883.0
2124158.0
2123910.0
2123855.0
2123844.0
2123904.0
2123951.0
2123931.0
2124025.0
2123885.0
2124096.0
2123954.0
2124094.0
2123947.0
2124049.0
2123959.0
2124031.0
2123920.0
2123904.0
2123975.0
2123901.0
2123885.0
2123857.0
2123985.0
2124080.0
2123977.0
2124001.0
2123908.0
2123897.0
2123856.0
2123964.0
2124002.0
2123938.0
2123870.0
2123884.0
2124145.0
2123889.0
2123855.0
2123866.0
2124063.0
2123871.0
2123828.0
2123924.0
2123872.0
2123838.0
2123825.0
2123938.0
2124003.0
2123969.0
2123849.0
2123789.0
2123949.0
2123848.0
2123830.0
2123932.0
2123866.0
2123853.0
2123936.0
2123944.0
2123891.0
2123932.0
2123817.0
2123935.0
2124016.0
2123797.0
2123839.0
2124014.0
2123876.0
2123887.0
2123976.0
2123816.0
2123861.0
2124019.0
2123818.0
2123834.0
2123938.0
2124012.0
2123863.0
2124003.0
2123923.0
2123855.0
2123991.0
2123875.0
2123863.0
2123983.0
2123792.0
2124020.0
2123899.0
2123966.0
2123832.0
2123830.0
2124022.0
2123811.0
2123965.0
2123985.0
2123890.0
2123757.0
2123832.0
2123925.0
2123770.0
2123827.0
2123924.0
2123788.0
2123867.0
2123876.0
2123785.0
2123995.0
2123958.0
2123856.0
2123835.0
2123827.0
2123797.0
2123813.0
2123962.0
2123868.0
2123876.0
2123827.0
2123989.0
2123939.0
2123785.0
2123989.0
2123779.0
2123822.0
2123780.0
2123754.0
2123753.0
2124025.0
2123961.0
2123748.0
2123713.0
2123820.0
2123917.0
2123857.0
2123929.0
2123755.0
2123842.0
2123796.0
2123913.0
2123728.0
2123776.0
2123774.0
2123780.0
2123793.0
2123879.0
2123935.0
2123768.0
2123834.0
2123795.0
2123948.0
2124012.0
2123711.0
2123782.0
2123768.0
2124013.0
2123724.0
2123759.0
2123711.0
2123952.0
2123921.0
2123686.0
2123845.0
2123912.0
2123732.0
2123951.0
2123710.0
2123765.0
2123826.0
2123807.0
2123893.0
2123749.0
2123746.0
2123857.0
2123725.0
2123786.0
2123987.0
2123894.0
2123830.0
2123920.0
2123821.0
2123958.0
2123750.0
2123757.0
2123927.0
2123745.0
2123930.0
2123688.0
2123863.0
2123860.0
2123726.0
2123940.0
2123671.0
2123787.0
2123891.0
2123777.0
2123767.0
2123983.0
2123730.0
2123774.0
2123854.0
2123797.0
2123957.0
2123693.0
2123785.0
2123904.0
2123823.0
2123696.0
2123741.0
2123871.0
2123845.0
2123730.0
2123764.0
2123871.0
2123720.0
2123864.0
2123942.0
2123915.0
2123829.0
2123811.0
2123745.0
2123800.0
2123765.0
2123747.0
2123763.0
2123751.0
2123733.0
2123773.0
2123875.0
2123632.0
2123754.0
2124003.0
2123784.0
2123870.0
2123771.0
2123928.0
2123707.0
2123898.0
2123879.0
2123672.0
2123674.0
2123727.0
2123738.0
2123837.0
2123801.0
2123748.0
2123749.0
2123695.0
2123917.0
2123875.0
2123870.0
2123702.0
2123717.0
2123886.0
2123656.0
2123792.0
2123771.0
2123718.0
2123918.0
2123869.0
2123781.0
2123807.0
2123702.0
2123810.0
2123683.0
2123881.0
2123653.0
2123921.0
2123676.0
2123886.0
2123687.0
2123810.0
2123733.0
2123861.0
2123687.0
2123628.0
2123731.0
2124012.0
2123859.0
2123695.0
2123753.0
2123840.0
2123877.0
2123726.0
2123677.0
2123886.0
2123734.0
2123679.0
2123905.0
2123849.0
2123792.0
2123689.0
2123790.0
2123834.0
2123708.0
2123861.0
2123722.0
2123707.0
2123785.0
2123728.0
2123818.0
2123691.0
2123818.0
2123757.0
2123787.0
2123921.0
2123712.0
2123759.0
2123720.0
2123928.0
2123710.0
2123641.0
2123714.0
2123725.0
2123660.0
2123790.0
2123644.0
2123895.0
2123777.0
2123718.0
2123688.0
2123741.0
2123742.0
2123770.0
2123702.0
2123825.0
2123629.0
2123782.0
2123681.0
2123833.0
2123842.0
2123718.0
2123669.0
2123827.0
2123684.0
2123896.0
2123707.0
2123720.0
2123797.0
2123645.0
2123797.0
2123716.0
2123900.0
2123689.0
2123858.0
2123721.0
2123882.0
2123745.0
2123659.0
2123733.0
2123666.0
2123832.0
2123641.0
2123834.0
2123844.0
2123678.0
2123831.0
2123639.0
2123815.0
2123751.0
2123648.0
2123764.0
2123816.0
2123692.0
2123730.0
2123917.0
2123661.0
2123793.0
2123807.0
2123684.0
2123745.0
2123659.0
2123755.0
2123651.0
2123855.0
2123662.0
2123759.0
2123741.0
2123826.0
2123713.0
2123785.0
2123738.0
2123671.0
2123828.0
2123716.0
2123858.0
2123635.0
2123773.0
2123709.0
2123771.0
2123750.0
2123806.0
2123829.0
2123719.0
2123622.0
2123672.0
2123929.0
2123669.0
2123809.0
2123735.0
2123736.0
2123892.0
2123735.0
2123729.0
2123813.0
2123685.0
2123674.0
2123751.0
2123682.0
2123825.0
2123695.0
2123850.0
2123577.0
2123791.0
2123689.0
2123633.0
2123794.0
2123727.0
2123674.0
2123621.0
2123689.0
2123615.0
2123681.0
2123753.0
2123676.0
2123725.0
2123646.0
2123713.0
2123646.0
2123671.0
2123850.0
2123670.0
2123694.0
2123826.0
2123722.0
2123719.0
2123845.0
2123732.0
2123879.0
2123738.0
2123801.0
2123682.0
2123776.0
2123761.0
2123796.0
2123604.0
2123795.0
2123649.0
2123751.0
2123728.0
2123800.0
2123694.0
2123720.0
2123672.0
2123540.0
2123708.0
2123896.0
2123658.0
2123766.0
2123693.0
2123870.0
2123727.0
2123670.0
2123808.0
2123664.0
2123626.0
2123697.0
2123794.0
2123858.0
2123690.0
2123767.0
2123703.0
2123763.0
2123656.0
2123695.0
2123824.0
2123590.0
2123792.0
2123722.0
2123658.0
2123813.0
2123587.0
2123825.0
2123722.0
2123839.0
2123684.0
2123652.0
2123810.0
2123796.0
2123723.0
2123679.0
2123841.0
2123759.0
2123574.0
2123851.0
2123652.0
2123815.0
2123612.0
2123712.0
2123850.0
2123835.0
2123701.0
2123787.0
2123685.0
2123815.0
2123608.0
2123702.0
2123618.0
2123681.0
2123609.0
2123679.0
2123733.0
2123867.0
2123681.0
2123842.0
2123656.0
2123697.0
2123828.0
2123690.0
2123787.0
2123835.0
2123726.0
2123658.0
2123863.0
2123630.0
2123666.0
2123682.0
2123639.0
2123738.0
2123584.0
2123592.0
2123653.0
2123627.0
2123745.0
2123662.0
2123686.0
2123700.0
2123638.0
2123641.0
2123813.0
2123743.0
2123579.0
2123595.0
2123890.0
2123645.0
2123682.0
2123626.0
2123736.0
2123643.0
2123558.0
2123670.0
2123647.0
2123672.0
2123797.0
2123599.0
2123626.0
2123714.0
2123736.0
2123710.0
2123718.0
2123589.0
2123872.0
2123585.0
2123650.0
2123741.0
2123628.0
2123622.0
2123760.0
2123680.0
2123648.0
2123722.0
2123564.0
2123571.0
2123600.0
2123856.0
2123738.0
2123651.0
2123542.0
2123534.0
2123697.0
2123638.0
2123689.0
2123785.0
2123657.0
2123688.0
2123822.0
2123611.0
2123660.0
2123772.0
2123728.0
2123547.0
2123712.0
2123773.0
2123781.0
2123566.0
2123640.0
2123587.0
2123855.0
2123732.0
2123855.0
2123719.0
2123578.0
2123611.0
2123657.0
2123836.0
2123725.0
2123660.0
2123721.0
2123832.0
2123527.0
2123592.0
2123658.0
2123624.0
2123759.0
2123794.0
2123625.0
2123763.0
2123840.0
2123602.0
2123613.0
2123546.0
2123718.0
2123823.0
2123604.0
2123623.0
2123644.0
2123749.0
2123527.0
2123679.0
2123636.0
2123747.0
2123793.0
2123628.0
2123574.0
2123755.0
2123733.0
2123618.0
2123682.0
2123837.0
2123654.0
2123640.0
2123757.0
2123610.0
2123610.0
2123820.0
2123582.0
2123740.0
2123813.0
2123567.0
2123608.0
2123758.0
2123625.0
2123765.0
2123601.0
2123706.0
2123760.0
2123680.0
2123844.0
2123777.0
2123554.0
2123632.0
2123802.0
2123775.0
2123613.0
2123797.0
2123772.0
2123661.0
2123768.0
2123659.0
2123733.0
2123731.0
2123664.0
2123655.0
2123744.0
2123722.0
2123729.0
2123666.0
2123551.0
2123657.0
2123683.0
2123658.0
2123663.0
2123625.0
2123787.0
2123646.0
2123760.0
2123606.0
2123608.0
2123563.0
2123602.0
2123797.0
2123817.0
2123698.0
2123669.0
2123792.0
2123804.0
2123638.0
2123623.0
2123747.0
2123768.0
2123581.0
2123645.0
2123624.0
2123576.0
2123677.0
2123736.0
2123612.0
2123570.0
2123606.0
2123689.0
2123766.0
2123577.0
2123700.0
2123803.0
2123603.0
2123595.0
2123637.0
2123562.0
2123560.0
2123659.0
2123762.0
2123629.0
2123608.0
2123745.0
2123750.0
2123690.0
2123647.0
2123793.0
2123781.0
2123654.0
2123776.0
2123637.0
2123591.0
2123715.0
2123594.0
2123738.0
2123778.0
2123497.0
2123597.0
2123735.0
2123527.0
2123586.0
2123821.0
2123614.0
2123799.0
2123655.0
2123591.0
2123627.0
2123698.0
2123610.0
2123587.0
2123591.0
2123606.0
2123616.0
2123662.0
2123641.0
2123648.0
2123583.0
2123642.0
2123591.0
2123573.0
2123669.0
2123591.0
2123751.0
2123655.0
2123731.0
2123656.0
2123598.0
2123590.0
2123560.0
2123575.0
2123779.0
2123630.0
2123635.0
2123726.0
2123546.0
2123557.0
2123611.0
2123716.0
2123534.0
2123807.0
2123590.0
2123567.0
2123578.0
2123644.0
2123778.0
2123796.0
2123559.0
2123517.0
2123739.0
2123630.0
2123680.0
2123786.0
2123749.0
2123737.0
2123655.0
2123601.0
2123522.0
2123622.0
2123670.0
2123769.0
2123709.0
2123799.0
2123712.0
2123548.0
2123664.0
2123727.0
2123712.0
2123818.0
2123661.0
2123733.0
2123651.0
2123667.0
2123624.0
2123615.0
2123703.0
2123612.0
2123600.0
2123705.0
2123621.0
2123552.0
2123818.0
2123639.0
2123662.0
2123671.0
2123553.0
2123584.0
2123536.0
2123769.0
2123609.0
2123567.0
2123577.0
2123803.0
2123731.0
2123631.0
2123544.0
2123659.0
2123523.0
2123575.0
2123784.0
2123579.0
2123616.0
2123806.0
2123723.0
2123618.0
2123711.0
2123547.0
2123594.0
2123598.0
2123620.0
2123739.0
2123539.0
2123651.0
2123594.0
2123624.0
2123779.0
2123634.0
2123798.0
2123850.0
2123562.0
2123668.0
2123737.0
2123521.0
2123540.0
2123662.0
2123651.0
2123558.0
2123753.0
2123540.0
2123844.0
2123637.0
2123600.0
2123783.0
2123591.0
2123568.0
2123776.0
2123583.0
2123641.0
2123884.0
2123585.0
2123682.0
2123674.0
2123751.0
2123586.0
2123641.0
2123658.0
2123602.0
2123776.0
2123567.0
2123678.0
2123793.0
2123645.0
2123686.0
2123625.0
2123742.0
2123587.0
2123560.0
2123739.0
2123776.0
2123616.0
2123560.0
2123610.0
2123515.0
2123546.0
2123738.0
2123562.0
2123640.0
2123607.0
2123806.0
2123602.0
2123612.0
2123590.0
2123787.0
2123591.0
2123664.0
2123667.0
2123800.0
2123649.0
2123632.0
2123815.0
2123558.0
2123680.0
2123546.0
2123626.0
2123573.0
2123629.0
2123586.0
2123643.0
2123516.0
2123612.0
2123741.0
2123496.0
2123512.0
2123502.0
2123741.0
2123516.0
2123614.0
2123485.0
2123629.0
2123735.0
2123558.0
2123658.0
2123565.0
2123803.0
2123527.0
2123740.0
2123620.0
2123625.0
2123827.0
2123798.0
2123582.0
2123721.0
2123657.0
2123813.0
2123620.0
2123479.0
2123720.0
2123552.0
2123718.0
2123576.0
2123598.0
2123680.0
2123459.0
2123726.0
2123651.0
2123527.0
2123654.0
2123612.0
2123679.0
2123552.0
2123695.0
2123555.0
2123557.0
2123844.0
2123530.0
2123761.0
2123633.0
2123720.0
2123637.0
2123470.0
2123600.0
2123586.0
2123683.0
2123555.0
2123689.0
2123585.0
2123489.0
2123705.0
2123633.0
2123621.0
2123737.0
2123648.0
2123558.0
2123751.0
2123651.0
2123580.0
2123753.0
2123553.0
2123713.0
2123573.0
2123672.0
2123582.0
2123698.0
2123711.0
2123698.0
2123601.0
2123571.0
2123605.0
2123650.0
2123554.0
2123586.0
2123772.0
2123574.0
2123722.0
2123712.0
2123535.0
2123782.0
2123548.0
2123571.0
2123773.0
2123566.0
2123585.0
2123752.0
2123570.0
2123740.0
2123756.0
2123741.0
2123565.0
2123747.0
2123694.0
2123512.0
2123648.0
2123629.0
2123695.0
2123622.0
2123768.0
2123759.0
2123602.0
2123557.0
2123683.0
2123579.0
2123770.0
2123570.0
2123717.0
2123557.0
2123541.0
2123758.0
2123578.0
2123663.0
2123558.0
2123707.0
2123684.0
2123568.0
2123693.0
2123633.0
2123574.0
2123693.0
2123558.0
2123529.0
2123743.0
2123569.0
2123763.0
2123570.0
2123556.0
2123628.0
2123481.0
2123604.0
2123644.0
2123712.0
2123558.0
2123514.0
2123666.0
2123571.0
2123794.0
2123616.0
2123611.0
2123578.0
2123587.0
2123595.0
2123717.0
2123591.0
2123728.0
2123595.0
2123766.0
2123537.0
2123731.0
2123601.0
2123538.0
2123664.0
2123471.0
2123590.0
2123520.0
2123678.0
2123580.0
2123495.0
2123709.0
2123541.0
2123595.0
2123530.0
2123672.0
2123767.0
2123796.0
2123567.0
2123615.0
2123575.0
2123668.0
2123656.0
2123640.0
2123731.0
2123770.0
2123487.0
2123663.0
2123580.0
2123583.0
2123745.0
2123797.0
2123566.0
2123540.0
2123625.0
2123600.0
2123599.0
2123545.0
2123543.0
2123525.0
2123742.0
2123551.0
2123616.0
2123541.0
2123595.0
2123606.0
2123486.0
2123554.0
2123574.0
2123666.0
2123609.0
2123633.0
2123673.0
2123577.0
2123779.0
2123764.0
2123691.0
2123543.0
2123636.0
2123734.0
2123703.0
2123504.0
2123625.0
2123484.0
2123590.0
2123684.0
2123557.0
2123642.0
2123580.0
2123701.0
2123636.0
2123578.0
2123728.0
2123642.0
2123563.0
2123529.0
2123647.0
2123768.0
2123552.0
2123481.0
2123572.0
2123579.0
2123721.0
2123724.0
2123654.0
2123524.0
2123498.0
2123560.0
2123590.0
2123713.0
2123607.0
2123563.0
2123641.0
2123527.0
2123513.0
2123617.0
2123693.0
2123731.0
2123512.0
2123514.0
2123809.0
2123741.0
2123711.0
2123578.0
2123781.0
2123700.0
2123555.0
2123690.0
2123498.0
2123532.0
2123531.0
2123594.0
2123717.0
2123565.0
2123581.0
2123625.0
2123591.0
2123662.0
2123525.0
2123505.0
2123719.0
2123601.0
2123715.0
2123580.0
2123779.0
2123762.0
2123514.0
2123759.0
2123741.0
2123664.0
2123593.0
2123572.0
2123750.0
2123559.0
2123618.0
2123764.0
2123468.0
2123675.0
2123760.0
2123485.0
2123580.0
2123680.0
2123585.0
2123684.0
2123518.0
2123575.0
2123644.0
2123577.0
2123568.0
2123662.0
2123534.0
2123575.0
2123764.0
2123573.0
2123685.0
2123571.0
2123671.0
2123570.0
2123618.0
2123603.0
2123707.0
2123549.0
2123699.0
2123539.0
2123540.0
2123713.0
2123550.0
2123687.0
2123612.0
2123482.0
2123736.0
2123576.0
2123568.0
2123652.0
2123699.0
2123484.0
2123558.0
2123704.0
2123546.0
2123538.0
2123628.0
2123678.0
2123656.0
2123553.0
2123727.0
2123598.0
2123583.0
2123731.0
2123512.0
2123680.0
2123510.0
2123620.0
2123704.0
2123559.0
2123698.0
2123593.0
2123659.0
2123533.0
2123572.0
2123572.0
2123723.0
2123542.0
2123602.0
2123491.0
2123804.0
2123558.0
2123782.0
2123572.0
2123538.0
2123550.0
2123527.0
2123720.0
2123426.0
2123676.0
2123531.0
2123715.0
2123635.0
2123562.0
2123518.0
2123533.0
2123700.0
2123570.0
2123587.0
2123428.0
2123678.0
2123511.0
2123618.0
2123654.0
2123562.0
2123700.0
2123521.0
2123478.0
2123744.0
2123518.0
2123621.0
2123739.0
2123543.0
2123506.0
2123591.0
2123550.0
2123539.0
2123588.0
2123653.0
2123576.0
2123608.0
2123652.0
2123664.0
2123565.0
2123511.0
2123601.0
2123572.0
2123645.0
2123600.0
2123558.0
2123705.0
2123581.0
2123507.0
2123670.0
2123525.0
2123646.0
2123524.0
2123768.0
2123579.0
2123447.0
2123541.0
2123537.0
2123487.0
2123748.0
2123624.0
2123615.0
2123569.0
2123534.0
2123524.0
2123690.0
2123582.0
2123710.0
2123702.0
2123517.0
2123709.0
2123594.0
2123705.0
2123698.0
2123534.0
2123758.0
2123513.0
2123514.0
2123717.0
2123518.0
2123729.0
2123462.0
2123647.0
2123604.0
2123517.0
2123536.0
2123546.0
2123472.0
2123536.0
2123654.0
2123494.0
2123546.0
2123479.0
2123607.0
2123698.0
2123547.0
2123539.0
2123538.0
2123718.0
2123590.0
2123688.0
2123526.0
2123564.0
2123709.0
2123586.0
2123523.0
2123514.0
2123438.0
2123549.0
2123519.0
2123586.0
2123489.0
2123571.0
2123729.0
2123556.0
2123656.0
2123596.0
2123523.0
2123557.0
2123428.0
2123522.0
2123534.0
2123759.0
2123539.0
2123699.0
2123590.0
2123447.0
2123680.0
2123546.0
2123682.0
2123498.0
2123719.0
2123567.0
2123731.0
2123593.0
2123509.0
2123653.0
2123518.0
2123751.0
2123605.0
2123544.0
2123657.0
2123612.0
2123529.0
2123671.0
2123529.0
2123665.0
2123768.0
2123495.0
2123775.0
2123508.0
2123689.0
2123503.0
2123676.0
2123494.0
2123756.0
2123592.0
2123604.0
2123563.0
2123585.0
2123660.0
2123488.0
2123689.0
2123580.0
2123586.0
2123740.0
2123567.0
2123745.0
2123578.0
2123496.0
2123583.0
2123681.0
2123586.0
2123579.0
2123466.0
2123671.0
2123514.0
2123575.0
2123553.0
2123668.0
2123604.0
2123562.0
2123720.0
2123493.0
2123719.0
2123550.0
2123560.0
2123520.0
2123678.0
2123590.0
2123698.0
2123543.0
2123650.0
2123465.0
2123690.0
2123552.0
2123529.0
2123753.0
2123527.0
2123767.0
2123571.0
2123632.0
2123610.0
2123663.0
2123655.0
2123428.0
2123594.0
2123589.0
2123544.0
2123510.0
2123689.0
2123518.0
2123598.0
2123645.0
2123550.0
2123588.0
2123544.0
2123610.0
2123479.0
2123656.0
2123646.0
2123524.0
2123714.0
2123582.0
2123573.0
2123650.0
2123594.0
2123479.0
2123598.0
2123615.0
2123627.0
2123622.0
2123656.0
2123724.0
2123501.0
2123723.0
2123676.0
2123616.0
2123581.0
2123673.0
2123554.0
2123616.0
2123508.0
2123652.0
2123525.0
2123531.0
2123525.0
2123649.0
2123556.0
2123511.0
2123594.0
2123583.0
2123533.0
2123610.0
2123657.0
2123544.0
2123493.0
2123520.0
2123596.0
2123510.0
2123517.0
2123522.0
2123536.0
2123485.0
2123608.0
2123569.0
2123714.0
2123447.0
2123531.0
2123591.0
2123696.0
2123584.0
2123643.0
2123593.0
2123479.0
2123556.0
2123548.0
2123608.0
2123636.0
2123708.0
2123669.0
2123461.0
2123689.0
2123534.0
2123515.0
2123663.0
2123478.0
2123491.0
2123695.0
2123537.0
2123497.0
2123573.0
2123720.0
2123606.0
2123646.0
2123464.0
2123668.0
2123570.0
2123491.0
2123442.0
2123566.0
2123533.0
2123492.0
2123617.0
2123472.0
2123509.0
2123547.0
2123664.0
2123715.0
2123675.0
2123446.0
2123544.0
2123565.0
2123556.0
2123614.0
2123718.0
2123617.0
2123651.0
2123613.0
2123465.0
2123471.0
2123484.0
2123563.0
2123732.0
2123461.0
2123671.0
2123566.0
2123526.0
2123559.0
2123686.0
2123464.0
2123562.0
2123655.0
2123694.0
2123662.0
2123526.0
2123694.0
2123726.0
2123538.0
2123581.0
2123541.0
2123451.0
2123684.0
2123489.0
2123594.0
2123597.0
2123591.0
2123687.0
2123551.0
2123684.0
2123659.0
2123486.0
2123456.0
2123571.0
2123699.0
2123549.0
2123625.0
2123573.0
2123488.0
2123710.0
2123690.0
2123518.0
2123517.0
2123722.0
2123517.0
2123567.0
2123642.0
2123383.0
2123456.0
2123568.0
2145742.0
2274043.0
2145267.0
2131525.0
2129925.0
2125316.0
2126505.0
2124991.0
2124664.0
2125215.0
2125617.0
2125332.0
2124755.0
2124788.0
2124977.0
2124828.0
2124758.0
2124761.0
2124944.0
2124871.0
2124727.0
2124807.0
2124874.0
2124731.0
2124863.0
2124715.0
2124770.0
2124986.0
2124961.0
2124788.0
2124817.0
2124740.0
2124682.0
2124820.0
2124765.0
2124754.0
2124705.0
2124795.0
2124741.0
2124791.0
2124861.0
2124868.0
2124899.0
2124726.0
2124792.0
2124856.0
2124710.0
2124755.0
2124815.0
2124829.0
2124782.0
2124783.0
2124776.0
2124800.0
2124878.0
2124743.0
2124705.0
2124727.0
2124842.0
2124909.0
2124897.0
2124738.0
2124824.0
2124904.0
2124960.0
2124782.0
2124700.0
2124760.0
2124897.0
2124709.0
2124759.0
2124662.0
2124806.0
2124883.0
2124765.0
2124732.0
2124631.0
2124770.0
2124729.0
2124886.0
2124871.0
2124881.0
2124908.0
2124739.0
2124902.0
2124783.0
2124955.0
2124662.0
2124742.0
2124898.0
2124707.0
2124736.0
2124934.0
2124806.0
2124760.0
2124901.0
2124721.0
2124707.0
2124845.0
2124702.0
2124834.0
2124707.0
2124731.0
2124815.0
2124687.0
2124935.0
2124711.0
2124769.0
2124907.0
2124740.0
2124828.0
2124661.0
2124787.0
2124655.0
2124761.0
2124870.0
2124690.0
2124766.0
2124830.0
2124670.0
2124668.0
2124799.0
2124776.0
2124882.0
2124877.0
2124656.0
2124937.0
2124802.0
2124805.0
2124750.0
2124706.0
2124717.0
2124719.0
2124871.0
2124837.0
2124707.0
2124742.0
2124821.0
2124704.0
2124712.0
2124825.0
2124671.0
2124739.0
2124954.0
2124739.0
2124661.0
2124700.0
2124886.0
2124965.0
2124826.0
2124715.0
2124905.0
2124761.0
2124802.0
2124894.0
2124868.0
2124663.0
2124645.0
2124806.0
2124843.0
2124617.0
2124650.0
2124819.0
2124763.0
2124687.0
2124684.0
2124736.0
2124704.0
2124698.0
2124867.0
2124701.0
2124696.0
2124693.0
2124711.0
2124805.0
2124720.0
2124880.0
2124693.0
2124636.0
2124687.0
2124766.0
2124881.0
2124892.0
2124648.0
2124846.0
2124710.0
2124707.0
2124926.0
2124898.0
2124666.0
2124710.0
2124847.0
2124827.0
2124762.0
2124839.0
2124905.0
2124861.0
2124678.0
2124745.0
2124756.0
2124735.0
2124869.0
2124861.0
2124785.0
2124856.0
2124861.0
2124727.0
2124678.0
2124861.0
2124735.0
2124708.0
2124777.0
2124683.0
2124923.0
2124765.0
2124921.0
2124831.0
2124750.0
2124753.0
2124714.0
2124801.0
2124717.0
2124700.0
2124871.0
2124798.0
2124717.0
2124863.0
2124653.0
2124682.0
2124840.0
2124672.0
2124656.0
2124730.0
2124772.0
2124769.0
2124822.0
2124696.0
2124730.0
2124872.0
2124706.0
2124767.0
2124885.0
2124634.0
2124802.0
2124790.0
2124729.0
2124825.0
2124699.0
2124615.0
2124708.0
2124927.0
2124658.0
2124613.0
2124639.0
2124804.0
2124914.0
2124686.0
2124700.0
2124683.0
2124770.0
2124673.0
2124820.0
2124633.0
2124690.0
2124691.0
2124719.0
2124648.0
2124889.0
2124824.0
2124647.0
2124652.0
2124714.0
2124892.0
2124640.0
2124847.0
2124667.0
2124698.0
2124908.0
2124727.0
2124728.0
2124648.0
2124754.0
2124653.0
2124694.0
2124781.0
2124754.0
2124693.0
2124865.0
2124742.0
2124790.0
2124888.0
2124757.0
2124858.0
2124670.0
2124722.0
2124844.0
2124715.0
2124865.0
2124654.0
2124679.0
2124932.0
2124702.0
2124707.0
2124847.0
2124656.0
2124652.0
2124679.0
2124699.0
2124864.0
2124860.0
2124620.0
2124718.0
2124752.0
2124693.0
2124712.0
2124601.0
2124722.0
2124850.0
2124746.0
2124826.0
2124762.0
2124866.0
2124672.0
2124807.0
2124642.0
2124800.0
2124719.0
2124893.0
2124664.0
2124896.0
2124665.0
2124734.0
2124854.0
2124744.0
2124772.0
2124892.0
2124752.0
2124680.0
2124772.0
2124855.0
2124716.0
2124873.0
2124647.0
2124861.0
2124701.0
2124805.0
2124640.0
2124871.0
2124703.0
2124781.0
2124634.0
2124881.0
2124660.0
2124743.0
2124865.0
2124855.0
2124868.0
2124845.0
2124642.0
2124905.0
2124703.0
2124914.0
2124658.0
2124789.0
2124866.0
2124689.0
2124670.0
2124860.0
2124672.0
2124567.0
2124612.0
2124876.0
2124682.0
2124701.0
2124741.0
2124678.0
2124644.0
2124688.0
2124721.0
2124848.0
2124647.0
2124878.0
2124657.0
2124801.0
2124688.0
2124843.0
2124717.0
2124692.0
2124965.0
2124660.0
2124700.0
2124733.0
2124842.0
2124662.0
2124875.0
2124644.0
2124822.0
2124703.0
2124854.0
2124727.0
2124880.0
2124625.0
2124754.0
2124710.0
2124801.0
2124619.0
2124873.0
2124602.0
2124771.0
2124864.0
2124679.0
2124840.0
2124696.0
2124808.0
2124749.0
2124649.0
2124877.0
2124659.0
2124901.0
2124712.0
2124817.0
2124846.0
2124712.0
2124617.0
2124763.0
2124721.0
2124687.0
2124618.0
2124879.0
2124628.0
2124836.0
2124713.0
2124782.0
2124751.0
2124813.0
2124714.0
2124783.0
2124698.0
2124711.0
2124706.0
2124900.0
2124763.0
2124654.0
2124793.0
2124646.0
2124798.0
2124687.0
2124655.0
2124858.0
2124781.0
2124713.0
2124860.0
2124666.0
2124771.0
2124774.0
2124882.0
2124668.0
2124744.0
2124794.0
2124748.0
2124598.0
2124798.0
2124654.0
2124813.0
2124715.0
2124702.0
2124686.0
2124637.0
2124694.0
2124780.0
2124644.0
2124688.0
2124680.0
2124672.0
2124763.0
2124639.0
2124805.0
2124763.0
2124750.0
2124716.0
2124692.0
2124635.0
2124626.0
2124672.0
2124652.0
2124584.0
2124669.0
2124716.0
2124703.0
2124833.0
2124804.0
2124850.0
2124665.0
2124704.0
2124918.0
2124813.0
2124586.0
2124761.0
2124670.0
2124649.0
2124859.0
2124661.0
2124646.0
2124678.0
2124843.0
2124785.0
2124611.0
2124714.0
2124883.0
2124740.0
2124654.0
2124688.0
2124638.0
2124905.0
2124662.0
2124757.0
2124848.0
2124792.0
2124842.0
2124812.0
2124854.0
2124866.0
2124826.0
2124827.0
2124629.0
2124631.0
2124757.0
2124641.0
2124670.0
2124668.0
2124657.0
2124643.0
2124817.0
2124822.0
2124765.0
2124623.0
2124621.0
2124609.0
2124612.0
2124689.0
2124795.0
2124823.0
2124726.0
2124796.0
2124589.0
2124702.0
2124841.0
2124830.0
2124873.0
2124861.0
2124656.0
2124616.0
2124688.0
2124711.0
2124731.0
2124596.0
2124709.0
2124684.0
2124649.0
2124780.0
2124705.0
2124695.0
2124872.0
2124835.0
2124599.0
2124682.0
2124643.0
2124688.0
2124850.0
2124665.0
2124770.0
2124718.0
2124588.0
2124719.0
2124683.0
2124830.0
2124748.0
2124644.0
2124607.0
2124706.0
2124728.0
2124589.0
2124701.0
2124810.0
2124814.0
2124853.0
2124798.0
2124654.0
2124636.0
2124645.0
2124674.0
2124824.0
2124738.0
2124840.0
2124607.0
2124888.0
2124640.0
2124626.0
2124620.0
2124658.0
2124744.0
2124699.0
2124763.0
2124608.0
2124688.0
2124838.0
2124854.0
2124868.0
2124682.0
2124900.0
2124710.0
2124585.0
2124699.0
2124662.0
2124667.0
2124697.0
2124670.0
2124649.0
2124793.0
2124818.0
2124815.0
2124720.0
2124648.0
2124627.0
2124716.0
2124692.0
2124917.0
2124888.0
2124672.0
2124803.0
2124726.0
2124872.0
2124917.0
2124795.0
2124767.0
2124627.0
2124684.0
2124703.0
2124660.0
2124605.0
2124664.0
2124663.0
2124626.0
2124654.0
2124724.0
2124645.0
2124659.0
2124704.0
2124684.0
2124675.0
2124648.0
2124653.0
2124592.0
2124645.0
2124631.0
2124658.0
2124662.0
2124666.0
2124657.0
2124662.0
2124663.0
2124694.0
2124712.0
2124705.0
2124702.0
2124717.0
2124569.0
2124696.0
2124662.0
2124598.0
2124657.0
2124732.0
2124688.0
2124701.0
2124543.0
2124664.0
2124591.0
2124652.0
2124732.0
2124680.0
2124723.0
2124853.0
2124804.0
2124673.0
2124651.0
2124637.0
2124662.0
2124625.0
2124655.0
2124640.0
2124630.0
2124684.0
2124676.0
2124664.0
2124612.0
2124596.0
2124682.0
2124677.0
2124690.0
2124685.0
2124670.0
2124629.0
2124742.0
2124874.0
2124860.0
2124690.0
2124683.0
2124702.0
2124644.0
2124847.0
2124629.0
2124789.0
2124718.0
2124563.0
2124682.0
2124593.0
2124737.0
2124680.0
2124839.0
2124677.0
2124807.0
2124864.0
2124840.0
2124672.0
2124676.0
2124662.0
2124692.0
2124890.0
2124669.0
2124669.0
2124764.0
2124606.0
2124745.0
2124674.0
2124674.0
2124679.0
2124694.0
2124705.0
2124709.0
2124709.0
2124767.0
2124668.0
2124677.0
2124671.0
2124717.0
2124781.0
2124882.0
2124638.0
2124630.0
2124553.0
2124641.0
2124685.0
2124671.0
2124814.0
2124800.0
2124820.0
2124831.0
2124664.0
2124706.0
2124636.0
2124719.0
2124717.0
2124617.0
2124640.0
2124778.0
2124700.0
2124648.0
2124714.0
2124611.0
2124624.0
2124592.0
2124677.0
2124687.0
2124906.0
2124801.0
2124855.0
2124667.0
2124817.0
2124590.0
2124646.0
2124619.0
2124634.0
2124877.0
2124832.0
2124737.0
2124656.0
2124799.0
2124652.0
2124665.0
2124663.0
2124855.0
2124854.0
2124615.0
2124699.0
2124631.0
2124670.0
2124576.0
2124636.0
2124702.0
2124677.0
2124597.0
2124670.0
2124762.0
2124679.0
2124627.0
2124610.0
2124658.0
2124647.0
2124695.0
2124841.0
2124627.0
2124559.0
2124666.0
2124880.0
2124716.0
2124894.0
2124779.0
2124820.0
2124812.0
2124817.0
2124800.0
2124846.0
2124590.0
2124652.0
2124629.0
2124620.0
2124618.0
2124700.0
2124772.0
2124861.0
2124822.0
2124735.0
2124636.0
2124678.0
2124808.0
2124653.0
2124733.0
2124689.0
2124836.0
2124658.0
2124629.0
2124687.0
2124695.0
2124751.0
2124818.0
2124626.0
2124603.0
2124688.0
2124721.0
2124797.0
2124845.0
2124792.0
2124861.0
2124729.0
2124639.0
2124730.0
2124600.0
2124684.0
2124572.0
2124674.0
2124820.0
2124787.0
2124753.0
2124672.0
2124630.0
2124617.0
2124607.0
2124644.0
2124615.0
2124693.0
2124625.0
2124636.0
2124591.0
2124620.0
2124790.0
2124866.0
2124643.0
2124790.0
2124649.0
2124711.0
2124702.0
2124838.0
2124813.0
2124751.0
2124754.0
2124646.0
2124631.0
2124653.0
2124732.0
2124624.0
2124673.0
2124613.0
2124785.0
2124591.0
2124838.0
2124694.0
2124596.0
2124719.0
2124798.0
2124820.0
2124715.0
2124785.0
2124651.0
2124624.0
2124634.0
2124587.0
2124635.0
2124636.0
2124600.0
2124673.0
2124622.0
2124627.0
2124656.0
2124627.0
2124701.0
2124581.0
2124695.0
2124681.0
2124723.0
2124833.0
2124636.0
2124692.0
2124630.0
2124688.0
2124665.0
2124661.0
2124700.0
2124660.0
2124666.0
2124608.0
2124796.0
2124836.0
2124776.0
2124576.0
2124747.0
2124594.0
2124795.0
2124570.0
2124705.0
2124648.0
2124652.0
2124752.0
2124807.0
2124732.0
2124564.0
2124812.0
2124658.0
2124639.0
2124825.0
2124587.0
2124839.0
2124601.0
2124693.0
2124623.0
2124698.0
2124845.0
2124655.0
2124866.0
2124675.0
2124776.0
2124635.0
2124893.0
2124601.0
2124668.0
2124872.0
2124701.0
2124653.0
2124716.0
2124647.0
2124788.0
2124603.0
2124630.0
2124599.0
2124712.0
2124780.0
2124849.0
2124858.0
2124621.0
2124606.0
2124699.0
2124787.0
2124757.0
2124897.0
2124806.0
2124686.0
2124590.0
2124668.0
2124576.0
2124520.0
2124643.0
2124667.0
2124731.0
2124819.0
2124820.0
2124816.0
2124645.0
2124617.0
2124638.0
2124680.0
2124706.0
2124805.0
2124869.0
2124633.0
2124761.0
2124687.0
2124736.0
2124855.0
2124608.0
2124608.0
2124590.0
2124634.0
2124704.0
2124784.0
2124696.0
2124614.0
2124613.0
2124655.0
2124689.0
2124756.0
2124795.0
2124620.0
2124699.0
2124618.0
2124715.0
2124799.0
2124673.0
2124629.0
2124752.0
2124676.0
2124598.0
2124694.0
2124685.0
2124796.0
2124671.0
2124849.0
2124844.0
2124792.0
2124806.0
2124809.0
2124795.0
2124754.0
2124669.0
2124618.0
2124614.0
2124643.0
2124626.0
2124597.0
2124671.0
2124866.0
2124850.0
2124814.0
2124682.0
2124722.0
2124605.0
2124642.0
2124824.0
2124623.0
2124807.0
2124800.0
2124848.0
2124840.0
2124853.0
2124846.0
2124770.0
2124742.0
2124751.0
2124776.0
2124706.0
2124579.0
2124635.0
2124767.0
2124623.0
2124610.0
2124825.0
2124760.0
2124787.0
2124621.0
2124695.0
2124659.0
2124586.0
2124662.0
2124600.0
2124622.0
2124623.0
2124575.0
2124636.0
2124614.0
2124682.0
2124770.0
2124807.0
2124713.0
2124635.0
2124576.0
2124694.0
2124631.0
2124757.0
2124611.0
2124643.0
2124573.0
2124599.0
2124701.0
2124761.0
2124761.0
2124819.0
2124739.0
2124552.0
2124615.0
2124575.0
2124744.0
2124664.0
2124569.0
2124655.0
2124556.0
2124625.0
2124641.0
2124652.0
2124687.0
2124675.0
2124816.0
2124837.0
2124753.0
2124799.0
2124804.0
2124774.0
2124827.0
2124669.0
2124718.0
2124799.0
2124804.0
2124810.0
2124796.0
2124816.0
2124615.0
2124683.0
2124596.0
2124654.0
2124744.0
2124750.0
2124738.0
2124776.0
2124807.0
2124614.0
2124645.0
2124625.0
2124574.0
2124551.0
2124685.0
2124669.0
2124632.0
2124761.0
2124621.0
2124664.0
2124630.0
2124634.0
2124630.0
2124642.0
2124714.0
2124683.0
2124674.0
2124595.0
2124620.0
2124544.0
2124736.0
2124680.0
2124598.0
2124632.0
2124623.0
2124786.0
2124662.0
2124693.0
2124623.0
2124624.0
2124732.0
2124661.0
2124606.0
2124695.0
2124681.0
2124651.0
2124588.0
2124611.0
2124644.0
2124616.0
2124614.0
2124644.0
2124597.0
2124618.0
2124587.0
2124649.0
2124584.0
2124575.0
2124588.0
2124706.0
2124590.0
2124825.0
2124653.0
2124594.0
2124525.0
2124566.0
2124609.0
2124824.0
2124769.0
2124688.0
2124667.0
2124560.0
2124658.0
2124719.0
2124821.0
2124763.0
2124827.0
2124775.0
2124635.0
2124633.0
2124610.0
2124558.0
2124801.0
2124891.0
2124865.0
2124602.0
2124600.0
2124692.0
2124694.0
2124744.0
2124770.0
2124561.0
2124703.0
2124596.0
2124633.0
2124817.0
2124788.0
2124764.0
2124743.0
2124690.0
2124569.0
2124604.0
2124695.0
2124596.0
2124668.0
2124655.0
2124712.0
2124577.0
2124583.0
2124593.0
2124663.0
2124612.0
2124840.0
2124834.0
2124864.0
2124709.0
2124621.0
2124597.0
2124587.0
2124622.0
2124756.0
2124576.0
2124605.0
2124654.0
2124585.0
2124582.0
2124622.0
2124680.0
2124662.0
2124792.0
2124724.0
2124611.0
2124627.0
2124616.0
2124663.0
2124733.0
2124637.0
2124604.0
2124683.0
2124832.0
2124609.0
2124647.0
2124610.0
2124619.0
2124527.0
2124633.0
2124701.0
2124659.0
2124642.0
2124821.0
2124780.0
2124692.0
2124669.0
2124867.0
2124728.0
2124775.0
2124795.0
2124624.0
2124622.0
2124820.0
2124790.0
2124685.0
2124580.0
2124703.0
2124519.0
2124793.0
2124725.0
2124682.0
2124801.0
2124764.0
2124548.0
2124600.0
2124601.0
2124781.0
2124734.0
2124552.0
2124645.0
2124655.0
2124754.0
2124735.0
2124572.0
2124775.0
2124766.0
2124685.0
2124583.0
2124534.0
2124626.0
2124534.0
2124655.0
2124631.0
2124634.0
2124801.0
2124677.0
2124615.0
2124639.0
2124635.0
2124810.0
2124586.0
2124810.0
2124816.0
2124627.0
2124649.0
2124600.0
2124628.0
2124651.0
2124641.0
2124772.0
2124557.0
2124651.0
2124828.0
2124771.0
2124769.0
2124622.0
2124560.0
2124552.0
2124653.0
2124560.0
2124686.0
2124791.0
2124652.0
2124664.0
2124643.0
2124810.0
2124691.0
2124577.0
2124559.0
2124624.0
2124776.0
2124594.0
2124595.0
2124648.0
2124795.0
2124723.0
2124544.0
2124563.0
2124687.0
2124744.0
2124579.0
2124643.0
2124577.0
2124621.0
2124581.0
2124653.0
2124563.0
2124621.0
2124653.0
2124837.0
2124623.0
2124614.0
2124571.0
2124699.0
2124796.0
2124771.0
2124604.0
2124685.0
2124604.0
2124608.0
2124627.0
2124643.0
2124843.0
2124757.0
2124771.0
2124807.0
2124737.0
2124762.0
2124817.0
2124751.0
2124679.0
2124692.0
2124716.0
2124634.0
2124564.0
2124573.0
2124621.0
2124570.0
2124609.0
2124695.0
2124609.0
2124568.0
2124570.0
2124696.0
2124873.0
2124823.0
2124734.0
2124794.0
2124786.0
2124644.0
2124587.0
2124541.0
2124604.0
2124609.0
2124678.0
2124769.0
2124664.0
2124818.0
2124680.0
2124677.0
2124601.0
2124580.0
2124660.0
2124810.0
2124731.0
2124821.0
2124724.0
2124612.0
2124595.0
2124592.0
2124638.0
2124626.0
2124645.0
2124816.0
2124735.0
2124570.0
2124709.0
2124768.0
2124781.0
2124710.0
2124641.0
2124555.0
2124583.0
2124615.0
2124647.0
2124725.0
2124591.0
2124595.0
2124630.0
2124630.0
2124624.0
2124753.0
2124786.0
2124749.0
2124721.0
2124584.0
2124657.0
2124760.0
2124603.0
2124611.0
2124596.0
2124794.0
2124621.0
2124652.0
2124750.0
2124615.0
2124637.0
2124662.0
2124726.0
2124628.0
2124565.0
2124614.0
2124644.0
2124622.0
2124576.0
2124813.0
2124647.0
2124569.0
2124637.0
2124628.0
2124771.0
2124579.0
2124652.0
2124680.0
2124614.0
2124603.0
2124664.0
2124748.0
2124723.0
2124555.0
2159831.0
2165778.0
2148029.0
2163384.0
2270902.0
2271533.0
2277842.0
2275926.0
2276231.0
2276327.0
2276615.0
2276398.0
2276430.0
2276712.0
2276372.0
2276557.0
2276510.0
2276442.0
2276604.0
2276360.0
2276481.0
2276688.0
2276609.0
2276610.0
2276384.0
2276513.0
2276410.0
2276396.0
2276358.0
2276678.0
2276514.0
2276599.0
2276565.0
2276568.0
2276442.0
2276379.0
2276458.0
2276430.0
2276403.0
2276424.0
2276372.0
2276425.0
2276507.0
2276337.0
2276346.0
2276406.0
2276608.0
2276293.0
2276405.0
2276386.0
2276376.0
2276356.0
2276628.0
2276296.0
2276366.0
2276330.0
2276506.0
2276569.0
2276341.0
2276348.0
2276571.0
2276448.0
2276305.0
2276395.0
2276528.0
2276438.0
2276379.0
2276588.0
2276593.0
2276434.0
2276316.0
2276586.0
2276678.0
2276393.0
2276319.0
2276391.0
2276600.0
2276343.0
2276393.0
2276304.0
2276380.0
2276684.0
2276538.0
2276369.0
2276629.0
2276291.0
2276399.0
2276548.0
2276401.0
2276456.0
2276344.0
2276464.0
2276363.0
2276512.0
2276579.0
2276340.0
2276357.0
2276389.0
2276605.0
2276418.0
2276242.0
2276340.0
2276591.0
2276584.0
2276297.0
2276338.0
2276388.0
2276587.0
2276316.0
2276299.0
2276320.0
2276371.0
2276528.0
2276510.0
2276394.0
2276335.0
2276345.0
2276505.0
2276366.0
2276351.0
2276352.0
2276530.0
2276440.0
2276255.0
2276411.0
2276561.0
2276416.0
2276272.0
2276309.0
2276349.0
2276587.0
2276302.0
2276346.0
2276353.0
2276550.0
2276364.0
2276325.0
2276355.0
2276551.0
2276364.0
2276318.0
2276319.0
2276354.0
2276466.0
2276313.0
2276376.0
2276360.0
2276382.0
2276377.0
2276256.0
2276328.0
2276334.0
2276503.0
2276540.0
2276470.0
2276304.0
2276260.0
2276342.0
2276370.0
2276515.0
2276568.0
2276543.0
2276503.0
2276342.0
2276541.0
2276599.0
2276478.0
2276504.0
2276484.0
2276262.0
2276276.0
2276305.0
2276572.0
2276208.0
2276251.0
2276590.0
2276541.0
2276469.0
2276272.0
2276322.0
2276348.0
2276331.0
2276489.0
2276269.0
2276330.0
2276302.0
2276278.0
2276265.0
2276297.0
2276437.0
2276580.0
2276544.0
2276289.0
2276346.0
2276575.0
2276552.0
2276220.0
2276394.0
2276333.0
2276569.0
2276395.0
2276264.0
2276382.0
2276415.0
2276351.0
2276266.0
2276296.0
2276295.0
2276574.0
2276322.0
2276480.0
2276345.0
2276331.0
2276247.0
2276297.0
2276312.0
2276279.0
2276569.0
2276494.0
2276272.0
2276307.0
2276300.0
2276361.0
2276534.0
2276441.0
2276264.0
2276271.0
2276289.0
2276313.0
2276364.0
2276543.0
2276469.0
2276526.0
2276447.0
2276592.0
2276307.0
2276274.0
2276172.0
2276296.0
2276302.0
2276320.0
2276273.0
2276266.0
2276292.0
2276520.0
2276266.0
2276292.0
2276306.0
2276211.0
2276429.0
2276268.0
2276243.0
2276171.0
2276258.0
2276287.0
2276279.0
2276385.0
2276568.0
2276502.0
2276263.0
2276539.0
2276553.0
2276543.0
2276275.0
2276260.0
2276220.0
2276280.0
2276264.0
2276257.0
2276273.0
2276255.0
2276301.0
2276264.0
2276270.0
2276286.0
2276255.0
2276332.0
2276309.0
2276318.0
2276297.0
2276338.0
2276352.0
2276580.0
2276341.0
2276459.0
2276519.0
2276238.0
2276290.0
2276490.0
2276393.0
2276346.0
2276237.0
2276296.0
2276536.0
2276552.0
2276452.0
2276301.0
2276201.0
2276307.0
2276551.0
2276368.0
2276516.0
2276487.0
2276538.0
2276229.0
2276306.0
2276232.0
2276327.0
2276393.0
2276444.0
2276596.0
2276387.0
2276266.0
2276310.0
2276520.0
2276501.0
2276418.0
2276211.0
2276300.0
2276292.0
2276225.0
2276296.0
2276434.0
2276532.0
2276463.0
2276273.0
2276261.0
2276312.0
2276301.0
2276328.0
2276298.0
2276294.0
2276281.0
2276283.0
2276523.0
2276590.0
2276234.0
2276215.0
2276235.0
2276254.0
2276207.0
2276266.0
2276195.0
2276301.0
2276419.0
2276272.0
2276377.0
2276304.0
2276210.0
2276285.0
2276504.0
2276427.0
2276369.0
2276468.0
2276296.0
2276416.0
2276301.0
2276282.0
2276252.0
2276397.0
2276257.0
2276398.0
2276504.0
2276212.0
2276506.0
2276279.0
2276246.0
2276279.0
2276415.0
2276225.0
2276415.0
2276282.0
2276288.0
2276174.0
2276246.0
2276235.0
2276212.0
2276344.0
2276182.0
2276143.0
2276338.0
2276301.0
2276551.0
2276487.0
2276196.0
2276227.0
2276303.0
2276474.0
2276278.0
2276445.0
2276284.0
2276258.0
2276227.0
2276457.0
2276395.0
2276280.0
2276162.0
2276303.0
2276506.0
2276392.0
2276169.0
2276449.0
2276360.0
2276489.0
2276237.0
2276282.0
2276255.0
2276292.0
2276214.0
2276471.0
2276541.0
2276324.0
2276371.0
2276301.0
2276310.0
2276337.0
2276214.0
2276250.0
2276417.0
2276498.0
2276220.0
2276488.0
2276211.0
2276302.0
2276360.0
2276222.0
2276293.0
2276347.0
2276369.0
2276257.0
2276493.0
2276320.0
2276245.0
2276286.0
2276481.0
2276306.0
2276339.0
2276417.0
2276324.0
2276303.0
2276477.0
2276384.0
2276523.0
2276454.0
2276364.0
2276253.0
2276217.0
2276277.0
2276353.0
2276461.0
2276223.0
2276225.0
2276316.0
2276417.0
2276236.0
2276293.0
2276254.0
2276458.0
2276282.0
2276423.0
2276251.0
2276119.0
2276339.0
2276195.0
2276243.0
2276529.0
2276437.0
2276287.0
2276360.0
2276226.0
2276271.0
2276432.0
2276466.0
2276388.0
2276224.0
2276550.0
2276521.0
2276424.0
2276194.0
2276337.0
2276473.0
2276195.0
2276128.0
2276216.0
2276221.0
2276292.0
2276283.0
2276386.0
2276184.0
2276311.0
2276310.0
2276186.0
2276276.0
2276256.0
2276507.0
2276394.0
2276255.0
2276323.0
2276448.0
2276252.0
2276256.0
2276223.0
2276251.0
2276112.0
2276176.0
2276247.0
2276444.0
2276162.0
2276183.0
2276221.0
2276451.0
2276195.0
2276256.0
2276125.0
2276257.0
2276400.0
2276199.0
2276248.0
2276256.0
2276360.0
2276349.0
2276225.0
2276317.0
2276393.0
2276210.0
2276491.0
2276413.0
2276460.0
2276180.0
2276292.0
2276150.0
2276250.0
2276259.0
2276269.0
2276236.0
2276213.0
2276244.0
2276137.0
2276267.0
2276500.0
2276541.0
2276448.0
2276163.0
2276274.0
2276358.0
2276192.0
2276257.0
2276309.0
2276338.0
2276200.0
2276229.0
2276249.0
2276269.0
2276233.0
2276304.0
2276479.0
2276252.0
2276286.0
2276269.0
2276257.0
2276389.0
2276433.0
2276296.0
2276308.0
2276248.0
2276417.0
2276450.0
2276485.0
2276177.0
2276197.0
2276416.0
2276179.0
2276178.0
2276195.0
2276223.0
2276213.0
2276347.0
2276196.0
2276180.0
2276200.0
2276401.0
2276389.0
2276336.0
2276224.0
2276246.0
2276141.0
2276202.0
2276226.0
2276252.0
2276184.0
2276295.0
2276272.0
2276438.0
2276416.0
2276401.0
2276307.0
2276204.0
2276177.0
2276248.0
2276268.0
2276240.0
2276292.0
2276257.0
2276437.0
2276473.0
2276440.0
2276176.0
2276349.0
2276423.0
2276452.0
2276173.0
2276490.0
2276366.0
2276195.0
2276283.0
2276311.0
2276320.0
2276383.0
2276182.0
2276224.0
2276210.0
2276248.0
2276298.0
2276388.0
2276224.0
2276451.0
2276298.0
2276253.0
2276301.0
2276276.0
2276491.0
2276229.0
2276167.0
2276286.0
2276218.0
2276133.0
2276253.0
2276479.0
2276222.0
2276238.0
2276260.0
2276423.0
2276490.0
2276142.0
2276327.0
2276370.0
2276496.0
2276230.0
2276442.0
2276162.0
2276215.0
2276519.0
2276388.0
2276339.0
2276205.0
2276147.0
2276244.0
2276395.0
2276361.0
2276145.0
2276215.0
2276399.0
2276502.0
2276139.0
2276413.0
2276416.0
2276310.0
2276276.0
2276307.0
2276427.0
2276289.0
2276431.0
2276206.0
2276416.0
2276125.0
2276322.0
2276370.0
2276259.0
2276253.0
2276406.0
2276279.0
2276525.0
2276211.0
2276151.0
2276189.0
2276419.0
2276154.0
2276250.0
2276181.0
2276244.0
2276445.0
2276139.0
2276283.0
2276228.0
2276217.0
2276214.0
2276221.0
2276503.0
2276197.0
2276160.0
2276410.0
2276214.0
2276175.0
2276195.0
2276310.0
2276225.0
2276253.0
2276177.0
2276180.0
2276199.0
2276440.0
2276098.0
2276199.0
2276467.0
2276254.0
2276312.0
2276373.0
2276200.0
2276127.0
2276224.0
2276521.0
2276247.0
2276547.0
2276256.0
2276406.0
2276406.0
2276232.0
2276236.0
2276417.0
2276222.0
2276275.0
2276274.0
2276448.0
2276239.0
2276276.0
2276414.0
2276151.0
2276463.0
2276195.0
2276434.0
2276298.0
2276419.0
2276374.0
2276227.0
2276195.0
2276457.0
2276218.0
2276407.0
2276186.0
2276229.0
2276468.0
2276094.0
2276235.0
2276177.0
2276251.0
2276242.0
2276228.0
2276135.0
2276298.0
2276299.0
2276263.0
2276462.0
2276067.0
2276207.0
2276421.0
2276378.0
2276374.0
2276165.0
2276233.0
2276486.0
2276231.0
2276419.0
2276147.0
2276212.0
2276446.0
2276206.0
2276208.0
2276438.0
2276423.0
2276377.0
2276209.0
2276414.0
2276389.0
2276222.0
2276273.0
2276188.0
2276152.0
2276242.0
2276390.0
2276176.0
2276277.0
2276295.0
2276219.0
2276274.0
2276319.0
2276192.0
2276168.0
2276461.0
2276091.0
2276240.0
2276332.0
2276174.0
2276188.0
2276183.0
2276214.0
2276437.0
2276439.0
2276381.0
2276227.0
2276238.0
2276196.0
2276295.0
2276132.0
2276235.0
2276314.0
2276290.0
2276254.0
2276416.0
2276186.0
2276180.0
2276162.0
2276231.0
2276169.0
2276224.0
2276394.0
2276177.0
2276208.0
2276440.0
2276335.0
2276145.0
2276491.0
2276413.0
2276364.0
2276267.0
2276220.0
2276274.0
2276185.0
2276307.0
2276330.0
2276300.0
2276345.0
2276178.0
2276452.0
2276110.0
2276219.0
2276468.0
2276422.0
2276162.0
2276231.0
2276404.0
2276242.0
2276449.0
2276140.0
2276388.0
2276205.0
2276155.0
2276191.0
2276268.0
2276434.0
2276472.0
2276256.0
2276304.0
2276376.0
2276254.0
2276236.0
2276429.0
2276499.0
2276199.0
2276205.0
2276500.0
2276415.0
2276151.0
2276187.0
2276376.0
2276208.0
2276487.0
2276216.0
2276450.0
2276250.0
2276370.0
2276167.0
2276482.0
2276151.0
2276428.0
2276426.0
2276181.0
2276404.0
2276204.0
2276562.0
2276382.0
2276092.0
2276355.0
2276189.0
2276212.0
2276317.0
2276263.0
2276425.0
2276142.0
2276370.0
2276216.0
2276251.0
2276130.0
2276315.0
2276419.0
2276153.0
2276322.0
2276302.0
2276259.0
2276131.0
2276128.0
2276438.0
2276253.0
2276378.0
2276458.0
2276502.0
2276172.0
2276409.0
2276159.0
2276148.0
2276246.0
2276162.0
2276301.0
2276206.0
2276442.0
2276503.0
2276392.0
2276304.0
2276151.0
2276267.0
2276185.0
2276400.0
2276173.0
2276285.0
2276247.0
2276384.0
2276173.0
2276338.0
2276235.0
2276394.0
2276255.0
2276223.0
2276299.0
2276224.0
2276424.0
2276171.0
2276336.0
2276439.0
2276206.0
2276338.0
2276181.0
2276151.0
2276417.0
2276177.0
2276306.0
2276122.0
2276325.0
2276138.0
2276262.0
2276349.0
2276219.0
2276191.0
2276352.0
2276226.0
2276444.0
2276191.0
2276173.0
2276230.0
2276236.0
2276265.0
2276210.0
2276164.0
2276364.0
2276133.0
2276346.0
2276168.0
2276343.0
2276168.0
2276243.0
2276230.0
2276433.0
2276374.0
2276196.0
2276438.0
2276220.0
2276223.0
2276071.0
2276269.0
2276353.0
2276222.0
2276450.0
2276148.0
2276163.0
2276498.0
2276420.0
2276185.0
2276493.0
2276140.0
2276187.0
2276345.0
2276144.0
2276253.0
2276290.0
2276366.0
2276194.0
2276121.0
2276276.0
2276224.0
2276485.0
2276187.0
2276384.0
2276423.0
2276231.0
2276376.0
2276311.0
2276248.0
2276420.0
2276344.0
2276253.0
2276276.0
2276386.0
2276190.0
2276340.0
2276166.0
2276384.0
2276456.0
2276252.0
2276163.0
2276436.0
2276288.0
2276406.0
2276449.0
2276272.0
2276146.0
2276105.0
2276230.0
2276132.0
2276406.0
2276196.0
2276414.0
2276225.0
2276402.0
2276269.0
2276215.0
2276300.0
2276156.0
2276493.0
2276121.0
2276513.0
2276303.0
2276130.0
2276399.0
2276479.0
2276381.0
2276227.0
2276389.0
2276156.0
2276372.0
2276243.0
2276171.0
2276360.0
2276252.0
2276420.0
2276171.0
2276382.0
2276139.0
2276387.0
2276210.0
2276431.0
2276209.0
2276365.0
2276168.0
2276174.0
2276376.0
2276162.0
2276337.0
2276072.0
2276097.0
2276209.0
2276426.0
2276228.0
2276079.0
2276280.0
2276287.0
2276289.0
2276318.0
2276195.0
2276435.0
2276380.0
2276154.0
2276337.0
2276521.0
2276182.0
2276146.0
2276240.0
2276444.0
2276171.0
2276359.0
2276276.0
2276318.0
2276311.0
2276166.0
2276349.0
2276143.0
2276363.0
2276268.0
2276220.0
2276419.0
2276258.0
2276146.0
2276427.0
2276294.0
2276282.0
2276338.0
2276221.0
2276356.0
2276237.0
2276191.0
2276322.0
2276158.0
2276067.0
2276325.0
2276104.0
2276174.0
2276196.0
2276461.0
2276142.0
2276464.0
2276147.0
2276354.0
2276416.0
2276200.0
2276313.0
2276174.0
2276241.0
2276129.0
2276188.0
2276347.0
2276089.0
2276385.0
2276191.0
2276295.0
2276228.0
2276265.0
2276177.0
2276254.0
2276288.0
2276213.0
2276418.0
2276198.0
2276402.0
2276181.0
2276484.0
2276127.0
2276245.0
2276441.0
2276178.0
2276447.0
2276205.0
2276100.0
2276285.0
2276198.0
2276410.0
2276406.0
2276288.0
2276147.0
2276422.0
2276259.0
2276170.0
2276393.0
2276171.0
2276214.0
2276282.0
2276199.0
2276424.0
2276206.0
2276419.0
2276209.0
2276359.0
2276217.0
2276188.0
2276153.0
2276311.0
2276193.0
2276378.0
2276275.0
2276419.0
2276251.0
2276123.0
2276278.0
2276210.0
2276321.0
2276172.0
2276341.0
2276260.0
2276272.0
2276427.0
2276304.0
2276326.0
2276296.0
2276183.0
2276207.0
2276224.0
2276264.0
2276172.0
2276373.0
2276225.0
2276345.0
2276231.0
2276442.0
2276222.0
2276427.0
2276278.0
2276437.0
2276199.0
2276384.0
2276185.0
2276475.0
2276195.0
2276433.0
2276097.0
2276504.0
2276222.0
2276348.0
2276236.0
2276251.0
2276181.0
2276275.0
2276425.0
2276473.0
2276138.0
2276488.0
2276259.0
2276431.0
2276370.0
2276216.0
2276382.0
2276199.0
2276358.0
2276269.0
2276381.0
2276415.0
2276139.0
2276287.0
2276274.0
2276124.0
2276448.0
2276160.0
2276459.0
2276169.0
2276272.0
2276164.0
2276126.0
2276434.0
2276206.0
2276458.0
2276432.0
2276335.0
2276376.0
2276449.0
2276171.0
2276367.0
2276274.0
2276172.0
2276385.0
2276275.0
2276182.0
2276402.0
2276184.0
2276330.0
2276273.0
2276179.0
2276525.0
2276163.0
2276433.0
2276230.0
2276430.0
2276385.0
2276195.0
2276278.0
2276181.0
2276247.0
2276446.0
2276350.0
2276308.0
2276442.0
2276180.0
2276420.0
2276137.0
2276273.0
2276370.0
2276155.0
2276317.0
2276136.0
2276269.0
2276258.0
2276356.0
2276227.0
2276415.0
2276256.0
2276209.0
2276447.0
2276200.0
2276440.0
2276210.0
2276312.0
2276239.0
2276306.0
2276219.0
2276441.0
2276136.0
2276449.0
2276169.0
2276383.0
2276272.0
2276403.0
2276316.0
2276265.0
2276382.0
2276345.0
2276199.0
2276344.0
2276160.0
2276242.0
2276147.0
2276390.0
2276241.0
2276395.0
2276146.0
2276496.0
2276494.0
2276399.0
2276458.0
2276177.0
2276251.0
2276354.0
2276114.0
2276213.0
2276322.0
2276392.0
2276414.0
2276487.0
2276250.0
2276328.0
2276236.0
2276145.0
2276247.0
2276168.0
2276191.0
2276235.0
2276403.0
2276232.0
2276370.0
2276127.0
2276378.0
2276182.0
2276315.0
2276272.0
2276311.0
2276236.0
2276185.0
2276292.0
2276307.0
2276405.0
2276194.0
2276483.0
2276150.0
2276190.0
2276305.0
2276132.0
2276453.0
2276208.0
2276394.0
2276192.0
2276141.0
2276256.0
2276467.0
2276336.0
2276176.0
2276234.0
2276288.0
2276350.0
2276169.0
2276450.0
2276171.0
2276115.0
2276194.0
2276329.0
2276114.0
2276397.0
2276452.0
2276351.0
2276154.0
2276218.0
2276407.0
2276180.0
2276417.0
2276167.0
2276373.0
2276333.0
2276209.0
2276453.0
2276100.0
2276192.0
2276227.0
2276144.0
2276194.0
2276433.0
2276178.0
2276188.0
2276145.0
2276278.0
2276405.0
2276303.0
2276119.0
2276295.0
2276107.0
2276423.0
2276064.0
2276267.0
2276343.0
2276111.0
2276341.0
2276237.0
2276142.0
2276367.0
2276266.0
2276153.0
2276337.0
2276258.0
2276203.0
2276427.0
2276203.0
2276301.0
2276440.0
2276168.0
2276435.0
2276426.0
2276227.0
2276423.0
2276232.0
2276425.0
2276110.0
2276254.0
2276145.0
2276293.0
2276205.0
2276422.0
2276184.0
2276345.0
2276196.0
2276404.0
2276158.0
2276222.0
2276241.0
2276114.0
2276239.0
2276418.0
2276374.0
2276121.0
2276100.0
2276240.0
2276116.0
2276369.0
2276512.0
2276383.0
2276141.0
2276200.0
2276220.0
2276110.0
2276240.0
2276113.0
2276266.0
2276134.0
2276269.0
2276286.0
2276254.0
2276102.0
2276161.0
2276424.0
2276096.0
2276168.0
2276282.0
2276141.0
2276154.0
2276437.0
2276180.0
2276329.0
2276197.0
2276301.0
2276206.0
2276394.0
2276202.0
2276426.0
2276326.0
2276169.0
2276178.0
2276269.0
2276142.0
2276377.0
2276188.0
2276307.0
2276160.0
2276393.0
2276190.0
2276161.0
2276204.0
2276350.0
2276340.0
2276251.0
2276200.0
2276367.0
2276187.0
2276361.0
2276330.0
2276150.0
2276351.0
2276259.0
2276200.0
2276345.0
2276170.0
2276386.0
2276244.0
2276181.0
2276421.0
2276245.0
2276121.0
2276295.0
2276342.0
2276182.0
2276239.0
2276404.0
2276263.0
2276313.0
2276239.0
2276139.0
2276376.0
2276199.0
2276335.0
2276189.0
2276364.0
2276220.0
2276113.0
2276413.0
2276152.0
2276246.0
2276075.0
2276220.0
2276371.0
2276139.0
2276070.0
2276218.0
2276171.0
2276439.0
2276124.0
2276386.0
2276212.0
2276503.0
2276179.0
2276270.0
2276374.0
2276155.0
2276274.0
2276085.0
2276278.0
2276110.0
2276200.0
2276131.0
2276266.0
2276178.0
2276183.0
2276331.0
2276184.0
2276353.0
2276241.0
2276380.0
2276178.0
2276350.0
2276265.0
2276297.0
2276233.0
2276184.0
2276195.0
2276173.0
2276177.0
2276125.0
2276406.0
2276120.0
2276346.0
2276160.0
2276455.0
2276162.0
2276391.0
2276145.0
2276197.0
2276163.0
2276158.0
2276171.0
2276462.0
2276106.0
2276392.0
2276237.0
2276393.0
2276151.0
2276379.0
2276251.0
2276334.0
2276221.0
2276154.0
2276395.0
2276147.0
2276214.0
2276401.0
2276150.0
2276333.0
2276099.0
2276346.0
2276294.0
2276285.0
2276380.0
2276222.0
2276312.0
2276215.0
2276258.0
2276217.0
2276296.0
2276208.0
2276319.0
2276164.0
2276458.0
2276261.0
2276187.0
2276433.0
2276244.0
2276348.0
2276458.0
2276448.0
2276166.0
2276429.0
2276179.0
2276348.0
2276218.0
2276074.0
2276225.0
2276120.0
2276374.0
2276159.0
2276350.0
2276250.0
2276162.0
2276233.0
2276103.0
2276169.0
2276331.0
2276172.0
2276293.0
2276183.0
2276357.0
2276138.0
2276352.0
2276223.0
2276120.0
2276333.0
2276148.0
2276211.0
2276343.0
2276164.0
2276234.0
2276297.0
2276412.0
2276124.0
2276416.0
2276142.0
2276468.0
2276183.0
2276378.0
2276208.0
2276178.0
2276078.0
2276165.0
2276417.0
2276193.0
2276177.0
2276420.0
2276192.0
2276156.0
2276263.0
2276146.0
2276135.0
2276188.0
2276054.0
2276215.0
2276395.0
2276197.0
2276389.0
2276151.0
2276207.0
2276406.0
2276080.0
2276373.0
2276150.0
2276262.0
2276118.0
2276376.0
2276187.0
2276390.0
2276242.0
2276220.0
2276300.0
2276148.0
2276350.0
2276242.0
2276375.0
2276194.0
2276348.0
2276153.0
2276453.0
2276141.0
2276336.0
2276209.0
2276374.0
2276139.0
2276206.0
2276363.0
2276069.0
2276116.0
2276388.0
2276133.0
2276220.0
2276157.0
2276218.0
2276068.0
2276209.0
2276428.0
2276165.0
2276351.0
2276154.0
2276220.0
2276371.0
2276289.0
2276220.0
2276186.0
2276362.0
2276145.0
2276329.0
2276242.0
2276222.0
2276359.0
2276226.0
2276286.0
2276170.0
2276386.0
2276225.0
2276448.0
2276116.0
2276390.0
2276095.0
2276319.0
2276142.0
2276326.0
2276147.0
2276272.0
2276167.0
2276407.0
2276212.0
2276382.0
2276209.0
2276342.0
2276399.0
2276151.0
2276406.0
2276281.0
2276247.0
2276274.0
2277438.0
2283387.0
2242604.0
2194370.0
2231679.0
2343457.0
2392300.0
2604929.0
2465556.0
2497540.0
2567469.0
2605759.0
3480028.0
3124224.0
4170661.0
4175696.0
4162954.0
3049132.0
2372391.0
2199150.0
2160832.0
2162230.0
2230794.0
2301454.0
2281677.0
2293942.0
2294214.0
2267821.0
2333989.0
2777572.0
3028225.0
4139758.0
4157556.0
4162231.0
4180759.0
4182919.0
4177090.0
4182670.0
4186973.0
4185934.0
4184157.0
4182941.0
4181734.0
4179869.0
4183629.0
4186931.0
4188164.0
4187798.0
4187305.0
4186908.0
4185484.0
4185203.0
4182515.0
4172500.0
4161255.0
4148823.0
4146538.0
4150400.0
4151892.0
4144705.0
3284810.0
2643669.0
2743379.0
2725519.0
2599689.0
2408036.0
2431266.0
2445920.0
2433029.0
2460145.0
2568440.0
2975250.0
4153789.0
4178968.0
4189355.0
4190533.0
4190713.0
4191198.0
4191276.0
4191368.0
4191322.0
4190831.0
4190456.0
4190616.0
4190305.0
4188149.0
4185985.0
4187931.0
4187605.0
4181357.0
4179836.0
4179334.0
4180666.0
4179666.0
4179384.0
4178416.0
4177669.0
4178843.0
4177572.0
4173028.0
4162908.0
4152213.0
4145398.0
4143851.0
4119636.0
4088461.0
4170696.0
4160803.0
4155556.0
4168032.0
4143405.0
4185324.0
4185414.0
4181066.0
4188420.0
4189428.0
4183068.0
4136581.0
4141455.0
4165151.0
4133291.0
4138926.0
4172513.0
4190840.0
4192074.0
4183234.0
4190303.0
4192721.0
4193052.0
4193129.0
4193697.0
4193752.0
4192323.0
4192702.0
4192340.0
4192119.0
4192760.0
4193017.0
4192059.0
4192385.0
4192182.0
4191007.0
4190072.0
4189359.0
4188786.0
4187811.0
4182554.0
4180390.0
4179226.0
4179701.0
4178310.0
4179422.0
4178850.0
4178245.0
4179204.0
4181491.0
4182740.0
4183249.0
4184467.0
4183302.0
4182856.0
4181076.0
3715964.0
3886650.0
2568456.0
1651172.0
-7568.0
-2611.0
-2750.0
-2550.0
-4372.0
4181490.0
4185287.0
4186901.0
-3887.0
-1761.0
-1841.0
-2289.0
-2051.0
-1327.0
-999.0
-904.0
-968.0
-2062.0
-1412.0
-3125.0
-7829.0
-390.0
-917.0
-901.0
-323.0
-223.0
-166.0
-158.0
-135.0
-122.0
-200.0
-1285.0
-2037.0
-1924.0
-1575.0
-1069.0
-722.0
-579.0
-353.0
-268.0
-98.0
-44.0
-25.0
-17.0
-19.0
-18.0
-66.0
-20.0
-74.0
8.0
3.0
-45.0
-62.0
-121.0
-48.0
-48.0
-121.0
-156.0
-127.0
-124.0
-203.0
-144.0
-101.0
-81.0
-46.0
-46.0
-7.0
21.0
29.0
25.0
14.0
22.0
20.0
-54.0
40.0
5.0
21.0
-9.0
-4.0
4.0
28.0
50.0
-15.0
-11.0
11.0
2640403.0
2641142.0
2641024.0
2640693.0
2640810.0
2641092.0
2640637.0
2640815.0
2336142.0
2337654.0
2338358.0
2340839.0
2341684.0
2139620.0
2139169.0
2132094.0
2121548.0
2116971.0
2058903.0
2069737.0
2080196.0
2101707.0
2107199.0
2118801.0
2130897.0
2141285.0
2154918.0
2173119.0
2200598.0
2239882.0
2281339.0
2321282.0
2358388.0
2358351.0
2352894.0
2351793.0
2354488.0
2360398.0
2355736.0
2371432.0
2389591.0
2414153.0
2437191.0
2444397.0
2466700.0
2481074.0
2492738.0
2508562.0
2519472.0
2518013.0
2514748.0
2515774.0
2520091.0
2512595.0
2503766.0
2498532.0
2496516.0
2501229.0
2519163.0
2517057.0
2517827.0
2528906.0
2537651.0
2539410.0
2533497.0
2527966.0
2523594.0
2521964.0
2519843.0
2516899.0
2510078.0
2506202.0
2501699.0
2492480.0
2494236.0
2519358.0
2519642.0
2513862.0
2503078.0
2496430.0
2504261.0
2503823.0
2497256.0
2499891.0
2502234.0
2498949.0
2497972.0
2494473.0
2491936.0
2492324.0
2493080.0
2484936.0
2495997.0
2507745.0
2494389.0
2483786.0
2476963.0
2466986.0
2456145.0
2443398.0
2432928.0
2427921.0
2432499.0
2436325.0
2456744.0
2478479.0
2508313.0
2541630.0
2537918.0
2528381.0
2493053.0
2439044.0
2516729.0
2529887.0
2517600.0
2518112.0
2522986.0
2529982.0
2531626.0
2535101.0
2548906.0
2560161.0
2593854.0
2595065.0
2591491.0
2587773.0
2593681.0
2610311.0
2615018.0
2610764.0
2619119.0
2623353.0
2631730.0
2698286.0
3221144.0
4194206.0
3366445.0
2835938.0
2705968.0
2623570.0
2567135.0
2544187.0
2540349.0
2531278.0
2511230.0
2501123.0
2478524.0
2474702.0
2486981.0
2511813.0
2517925.0
2483232.0
2453016.0
2454043.0
2437794.0
2442457.0
2456439.0
2466632.0
2443635.0
2436077.0
2422058.0
2409306.0
2396270.0
2380135.0
2362669.0
2358666.0
2349882.0
2334455.0
2335846.0
2345923.0
2362683.0
2372965.0
2559995.0
2700091.0
2691821.0
2676450.0
2656557.0
2609488.0
2613319.0
2623810.0
2630682.0
2620346.0
2618836.0
2624993.0
2619049.0
2599657.0
2597135.0
2585217.0
2571340.0
2556719.0
2542912.0
2538412.0
2524630.0
2513000.0
2502209.0
2491888.0
2477086.0
2473515.0
2461361.0
2451798.0
2436781.0
2422897.0
2422157.0
2424743.0
2434767.0
2440590.0
2441548.0
2456566.0
2456525.0
2449437.0
2479401.0
2503303.0
2565206.0
2558115.0
2561954.0
2623599.0
2679811.0
2686731.0
2658367.0
2604030.0
2601150.0
2679449.0
2711432.0
2735107.0
2745721.0
2739084.0
2766579.0
2778853.0
2783870.0
2786596.0
2798592.0
2811786.0
2845250.0
2881308.0
2895682.0
2911713.0
2924561.0
2920795.0
2938011.0
2970873.0
2976735.0
3014610.0
3026272.0
3056694.0
3074566.0
3117548.0
3115840.0
3147538.0
3182156.0
3210627.0
3248011.0
3265964.0
3289131.0
3288486.0
3320664.0
3348335.0
3370893.0
3365847.0
3309205.0
3242315.0
3048050.0
3001192.0
3050512.0
3093138.0
3096252.0
3130914.0
3145649.0
3113610.0
3089185.0
3080584.0
3081970.0
3078479.0
3070357.0
3042765.0
3018774.0
3010282.0
2987139.0
2963881.0
2993306.0
2969568.0
2967959.0
2967299.0
2948085.0
2934487.0
2923487.0
2921636.0
2914528.0
2912881.0
2933693.0
2945788.0
2949647.0
2949469.0
2949554.0
2954628.0
2945209.0
2930648.0
2915623.0
2893020.0
2869357.0
2824365.0
2803152.0
2770138.0
2771973.0
2753341.0
2790636.0
2820652.0
2852720.0
2873063.0
2867345.0
2879720.0
2879926.0
2883003.0
2830281.0
2858909.0
2830996.0
2871249.0
2888668.0
2860899.0
2859033.0
2840861.0
2827122.0
2823847.0
2908877.0
3035008.0
3135929.0
3169211.0
3169087.0
3170400.0
3234230.0
3316624.0
3330709.0
3335600.0
3369543.0
3424434.0
3462742.0
3487435.0
3514033.0
3535877.0
3555781.0
3559530.0
3516463.0
3547618.0
3572529.0
3591566.0
3626973.0
3642349.0
3645659.0
3646547.0
3652780.0
3650711.0
3648781.0
3652087.0
3652311.0
3652161.0
3648660.0
3642734.0
3640843.0
3642247.0
3642596.0
3644874.0
3653130.0
3656482.0
3658684.0
3658719.0
3660945.0
3663639.0
3663309.0
3654541.0
3646222.0
3640091.0
3642484.0
3644583.0
3643840.0
3644889.0
3642090.0
3638751.0
3616304.0
3583466.0
3567646.0
3553941.0
3536105.0
3524761.0
3506934.0
3484879.0
3447905.0
3399387.0
3391869.0
3394178.0
3415750.0
3422652.0
3404065.0
3393885.0
3398277.0
3408633.0
3409861.0
3422574.0
3423719.0
3398630.0
3360537.0
3395431.0
3473537.0
3516730.0
4097019.0
4194788.0
4194756.0
3853023.0
3651404.0
3591941.0
3570911.0
3523206.0
3386120.0
3398935.0
3260253.0
3253619.0
3277903.0
3241107.0
3209692.0
3169432.0
3137810.0
3137498.0
3136268.0
3101665.0
3150259.0
3118473.0
3131975.0
3167902.0
3155313.0
3155897.0
3152750.0
3185151.0
3129678.0
3078301.0
3187872.0
3125718.0
3119710.0
3096973.0
3048481.0
3039704.0
3034395.0
3030047.0
3022803.0
3021164.0
3051841.0
3054274.0
3061721.0
3104116.0
3121432.0
3164738.0
3176556.0
3179350.0
3185564.0
3191557.0
3186383.0
3173085.0
3150982.0
3160105.0
3154345.0
3151512.0
3153204.0
3142172.0
3108877.0
3072178.0
3048260.0
3061707.0
3070467.0
3051109.0
3041208.0
3046977.0
3046048.0
3010478.0
2980785.0
2980980.0
2990438.0
2993800.0
2988038.0
2987866.0
2986627.0
2986263.0
2980850.0
2986932.0
2971759.0
2950605.0
2941957.0
2940856.0
2930535.0
2917322.0
2919072.0
2913879.0
2907628.0
2904177.0
2894494.0
2886480.0
2875607.0
2860746.0
2850776.0
2840538.0
2833131.0
2826126.0
2824587.0
2816919.0
2813538.0
2816459.0
2817937.0
2812459.0
2810455.0
2808929.0
2809135.0
2804472.0
2798282.0
2792675.0
2791220.0
2787782.0
2779662.0
2777311.0
2776765.0
2781481.0
2786690.0
2794890.0
2799208.0
2802381.0
2805607.0
2807646.0
2810681.0
2809755.0
2813110.0
2818083.0
2822543.0
2828296.0
2832255.0
2834101.0
2832541.0
2844883.0
2860180.0
2863364.0
2848912.0
2836746.0
2834121.0
2841276.0
2847522.0
2857051.0
2858480.0
2855127.0
2853989.0
2879496.0
2899322.0
2907580.0
2907129.0
2909874.0
2919299.0
2918278.0
2886090.0
2874830.0
2881891.0
2902377.0
2896903.0
2916034.0
2930072.0
2912533.0
2890425.0
2884524.0
2883277.0
2890946.0
2902934.0
2912615.0
2925636.0
2930985.0
2940269.0
2937124.0
2939015.0
2930475.0
2925846.0
2929749.0
2927625.0
2930498.0
2933388.0
2938102.0
2961097.0
2977478.0
2989250.0
2985861.0
2986630.0
3004745.0
3006658.0
3013965.0
3025675.0
3026065.0
3028645.0
3034232.0
3032386.0
3025087.0
3011338.0
3012989.0
3033779.0
3020950.0
2996147.0
2985774.0
3017048.0
2999026.0
2988546.0
2973823.0
2970424.0
2972349.0
2983958.0
2994551.0
3003231.0
3006560.0
2995006.0
2992386.0
2973156.0
2959929.0
2958374.0
2952450.0
2944433.0
2939762.0
2925658.0
2913187.0
2909993.0
2899679.0
2900318.0
2909474.0
2928978.0
2927160.0
2921679.0
2917129.0
2916516.0
2913056.0
2913056.0
2902896.0
2899946.0
2885956.0
2863124.0
2863124.0
2881712.0
2883297.0
2850682.0
2850967.0
2837583.0
2829785.0
2833385.0
2827205.0
2822968.0
2830452.0
2820775.0
2783466.0
2769021.0
2778886.0
2774490.0
2760506.0
2744470.0
2743279.0
2735861.0
2729283.0
2727657.0
2719869.0
2727708.0
2728937.0
2733392.0
2736205.0
2739686.0
2724541.0
2721656.0
2734039.0
2735743.0
2749576.0
2765065.0
2762587.0
2765166.0
2766821.0
2753779.0
2747038.0
2746773.0
2735762.0
2715562.0
2693011.0
2655038.0
2642960.0
2642211.0
2655368.0
2670896.0
2599676.0
2583617.0
2624633.0
2619208.0
2607411.0
2565325.0
2549835.0
2563008.0
2548575.0
2541329.0
2534576.0
2530871.0
2532924.0
2525929.0
2510340.0
2490086.0
2483735.0
2466639.0
2458504.0
2442036.0
2425966.0
2411399.0
2410034.0
2427497.0
2437593.0
2441825.0
2439567.0
2443330.0
2424780.0
2439789.0
2453938.0
2460950.0
2468339.0
2463457.0
2466522.0
2470841.0
2473146.0
2477668.0
2480008.0
2483193.0
2483342.0
2503180.0
2501412.0
2492332.0
2482710.0
2480168.0
2470133.0
2455197.0
2452248.0
2448051.0
2442685.0
2437076.0
2436401.0
2435304.0
2432305.0
2433397.0
2416202.0
2414301.0
2408056.0
2424380.0
2444212.0
2459311.0
2482903.0
2491938.0
2489122.0
2491573.0
2496116.0
2499327.0
2506095.0
2510978.0
2526664.0
2561092.0
2620851.0
2676419.0
2751270.0
2790101.0
2767473.0
2696436.0
2669673.0
2630461.0
2598707.0
2580568.0
2574105.0
2570401.0
2570190.0
2570636.0
2569862.0
2573587.0
2574540.0
2575332.0
2577549.0
2577206.0
2580802.0
2580611.0
2581645.0
2575414.0
2570965.0
2570067.0
2571564.0
2572310.0
2571698.0
2570549.0
2570706.0
2571269.0
2567020.0
2560016.0
2554040.0
2544014.0
2539695.0
2537401.0
2537026.0
2536143.0
2535370.0
2534217.0
2532857.0
2532902.0
2533165.0
2535061.0
2535594.0
2538028.0
2539596.0
2543072.0
2542569.0
2541937.0
2540579.0
2536323.0
2536491.0
2537513.0
2539233.0
2541487.0
2543003.0
2542928.0
2544904.0
2548155.0
2548482.0
2551362.0
2555508.0
2558362.0
2560906.0
2560129.0
2558147.0
2552659.0
2551938.0
2550940.0
2552043.0
2551474.0
2552142.0
2554026.0
2554666.0
2558262.0
2559997.0
2563983.0
2570886.0
2573915.0
2577756.0
2582519.0
2581499.0
2581531.0
2581374.0
2582850.0
2576796.0
2580565.0
2588151.0
2595633.0
2592511.0
2585072.0
2584742.0
2593713.0
2609416.0
2620080.0
2629967.0
2646953.0
2663839.0
2673629.0
2669700.0
2667755.0
2694264.0
2687053.0
2687195.0
2693303.0
2705058.0
2709950.0
2716861.0
2717217.0
2719029.0
2723536.0
2729046.0
2730869.0
2734048.0
2737686.0
2747094.0
2750882.0
2756759.0
2764362.0
2763388.0
2764296.0
2767053.0
2762903.0
2767866.0
2778343.0
2794588.0
2811570.0
2828155.0
2839744.0
2845958.0
2844972.0
2843116.0
2841870.0
2841285.0
2837885.0
2837978.0
2839303.0
2836742.0
2830483.0
2827940.0
2826528.0
2821873.0
2818709.0
2817365.0
2817230.0
2814849.0
2812717.0
2801503.0
2793183.0
2788118.0
2787531.0
2783348.0
2777001.0
2779547.0
2775584.0
2778750.0
2788229.0
2802626.0
2812719.0
2837465.0
2858615.0
2907716.0
2966003.0
2974063.0
3028645.0
3065984.0
3075103.0
3096824.0
3119514.0
3109719.0
3121976.0
3123240.0
3105566.0
3043146.0
2974923.0
2951824.0
2949895.0
2947888.0
2947949.0
2950024.0
2954654.0
2955929.0
2963407.0
2964808.0
2964741.0
2968102.0
2973295.0
2975880.0
2978790.0
2983794.0
2983152.0
2980986.0
2978866.0
2976991.0
2977646.0
2976210.0
2979773.0
2980689.0
2981147.0
2981681.0
2983327.0
2986342.0
2989706.0
2993609.0
2995008.0
2997371.0
2996919.0
2997918.0
2996123.0
2997233.0
2997171.0
2997893.0
2998142.0
3000997.0
3005143.0
3014664.0
3138455.0
3206460.0
3237013.0
3270222.0
3285743.0
3305587.0
3315902.0
3303266.0
3264108.0
3221944.0
3178763.0
3147453.0
3134180.0
3118715.0
3114454.0
3113064.0
3108666.0
3104464.0
3090261.0
3081779.0
3071865.0
3059308.0
3073799.0
3092798.0
3155489.0
3190004.0
3226529.0
3292947.0
3330871.0
3338539.0
3346514.0
3357404.0
3357815.0
3332734.0
3369114.0
3368489.0
3353749.0
3357508.0
3355181.0
3319845.0
3300000.0
3260911.0
3187240.0
3138851.0
3114730.0
3083690.0
3066841.0
3057169.0
3047318.0
3036495.0
3029770.0
3028485.0
3022761.0
3019059.0
3011943.0
2999890.0
2984644.0
2971177.0
2959116.0
2948297.0
2942322.0
2934841.0
2929931.0
2921125.0
2914266.0
2906703.0
2896338.0
2889549.0
2882233.0
2877840.0
2868870.0
2855021.0
2842981.0
2832798.0
2825789.0
2819024.0
2814934.0
2812396.0
2806136.0
2802426.0
2798855.0
2793462.0
2792156.0
2788644.0
2782939.0
2774422.0
2764256.0
2754199.0
2749481.0
2744596.0
2741801.0
2739942.0
2735340.0
2732534.0
2729020.0
2727010.0
2722037.0
2720012.0
2717452.0
2712652.0
2702145.0
2691399.0
2682856.0
2673991.0
2669119.0
2665711.0
2662160.0
2664711.0
2668404.0
2670002.0
2672693.0
2671169.0
2664939.0
2656823.0
2645592.0
2628765.0
2613794.0
2599005.0
2590720.0
2584466.0
2575242.0
2573684.0
2568436.0
2567368.0
2566450.0
2562399.0
2561333.0
2566638.0
2571508.0
2570289.0
2571906.0
2569904.0
2572318.0
2576021.0
2576983.0
2581838.0
2587490.0
2593310.0
2599569.0
2606352.0
2616982.0
2625326.0
2628814.0
2629267.0
2635927.0
2641643.0
2653264.0
2663564.0
2670856.0
2677426.0
2680212.0
2678770.0
2677817.0
2683330.0
2683491.0
2683866.0
2688056.0
2691380.0
2696284.0
2698945.0
2698241.0
2699528.0
2704054.0
2709521.0
2710962.0
2715649.0
2724423.0
2731545.0
2743034.0
2749652.0
2751713.0
2747584.0
2742881.0
2743384.0
2745035.0
2747810.0
2755828.0
2763552.0
2753848.0
2739611.0
2734622.0
2735074.0
2722049.0
2694122.0
2659478.0
2646564.0
2639823.0
2668975.0
2823655.0
2940129.0
3031215.0
3093394.0
3147545.0
3191337.0
3221176.0
3248137.0
3245200.0
3232900.0
3180028.0
3012913.0
2930234.0
2916485.0
2918913.0
2915884.0
2896254.0
2864094.0
2846008.0
2831754.0
2821911.0
2814195.0
2806112.0
2802918.0
2798738.0
2793498.0
2790836.0
2806879.0
2827060.0
2839137.0
2839364.0
2833879.0
2832837.0
2823384.0
2808349.0
2792765.0
2782195.0
2780163.0
2785104.0
2788685.0
2787347.0
2785922.0
2778260.0
2775494.0
2765827.0
2758669.0
2752541.0
2746961.0
2740118.0
2740975.0
2725881.0
2700140.0
2680029.0
2662747.0
2658121.0
2656794.0
2662240.0
2666011.0
2673017.0
2681786.0
2690087.0
2688004.0
2684010.0
2675322.0
2664489.0
2663075.0
2667735.0
2665704.0
2662784.0
2661043.0
2659653.0
2659982.0
2659897.0
2665331.0
2671997.0
2675226.0
2670731.0
2667860.0
2661600.0
2648752.0
2637088.0
2628279.0
2616094.0
2611738.0
2612926.0
2613386.0
2609860.0
2616021.0
2618963.0
2635270.0
2651244.0
2663386.0
2671559.0
2678516.0
2683937.0
2682156.0
2676691.0
2669132.0
2664403.0
2667282.0
2672725.0
2678531.0
2684015.0
2687210.0
2689410.0
2690785.0
2694572.0
2698467.0
2697987.0
2696264.0
2694313.0
2691422.0
2691090.0
2692506.0
2695351.0
2698201.0
2698864.0
2700965.0
2703134.0
2705814.0
2710826.0
2714423.0
2717457.0
2718988.0
2720726.0
2718821.0
2713193.0
2706865.0
2702506.0
2700763.0
2701174.0
2702007.0
2703915.0
2705516.0
2707474.0
2709482.0
2712210.0
2715976.0
2719906.0
2723406.0
2728120.0
2733624.0
2737954.0
2742499.0
2745321.0
2745444.0
2742139.0
2739304.0
2737008.0
2735897.0
2739605.0
2740928.0
2744800.0
2745810.0
2748307.0
2751240.0
2754944.0
2758727.0
2762602.0
2766549.0
2770314.0
2774262.0
2776263.0
2774027.0
2770788.0
2770535.0
2770199.0
2770848.0
2771804.0
2774144.0
2776138.0
2778570.0
2781295.0
2785466.0
2788028.0
2792095.0
2793654.0
2797036.0
2797320.0
2794313.0
2791749.0
2790442.0
2792038.0
2791945.0
2794091.0
2796600.0
2799820.0
2800719.0
2803745.0
2806027.0
2810220.0
2811659.0
2815222.0
2815698.0
2813129.0
2809074.0
2807780.0
2807908.0
2810354.0
2811568.0
2813094.0
2813152.0
2815444.0
2817375.0
2819249.0
2821333.0
2823925.0
2827138.0
2830174.0
2829431.0
2827761.0
2824489.0
2822044.0
2822200.0
2822184.0
2825539.0
2826035.0
2827708.0
2830078.0
2832593.0
2834810.0
2837901.0
2841126.0
2842055.0
2844701.0
2849008.0
2849976.0
2849698.0
2845004.0
2844527.0
2843354.0
2844621.0
2844648.0
2846656.0
2848787.0
2850764.0
2853143.0
2856752.0
2858040.0
2860036.0
2863576.0
2867239.0
2871233.0
2874922.0
2878177.0
2878143.0
2875755.0
2873594.0
2873080.0
2874395.0
2877215.0
2880448.0
2881251.0
2883431.0
2885373.0
2887986.0
2890888.0
2894673.0
2895720.0
2898909.0
2902662.0
2906060.0
2909835.0
2914179.0
2913495.0
2911768.0
2910652.0
2909164.0
2911257.0
2913291.0
2915367.0
2918677.0
2919027.0
2923330.0
2925833.0
2928353.0
2929462.0
2932523.0
2934931.0
2938136.0
2940258.0
2940187.0
2936613.0
2937940.0
2937115.0
2939096.0
2941424.0
2942403.0
2932870.0
2902351.0
2864944.0
2821740.0
2810080.0
2805998.0
2806287.0
2802365.0
2800959.0
2799016.0
2801440.0
2815148.0
2839868.0
2872441.0
2917740.0
2941468.0
2945771.0
2941582.0
2940795.0
2950050.0
2958476.0
2961566.0
2960426.0
2955756.0
2954825.0
2954570.0
2953940.0
2954402.0
2954726.0
2955570.0
2957448.0
2958473.0
2958159.0
2960748.0
2961723.0
2961683.0
2957134.0
2952163.0
2949209.0
2947663.0
2948348.0
2946544.0
2946908.0
2947510.0
2947295.0
2950299.0
2950288.0
2952307.0
2954776.0
2958105.0
2963998.0
2967542.0
2967707.0
2964145.0
2962101.0
2961027.0
2960455.0
2960263.0
2961627.0
2960536.0
2960694.0
2960401.0
2960502.0
2961185.0
2962438.0
2963706.0
2965520.0
2967165.0
2969665.0
2971349.0
2973562.0
2974227.0
2970102.0
2966443.0
2964345.0
2962664.0
2962625.0
2963311.0
2964153.0
2964410.0
2964474.0
2965102.0
2966207.0
2967609.0
2968433.0
2970136.0
2971922.0
2973660.0
2975176.0
2978412.0
2979917.0
2977426.0
2973381.0
2969183.0
2967474.0
2966690.0
2966316.0
2966693.0
2966842.0
2967272.0
2968009.0
2968706.0
2969520.0
2971263.0
2974617.0
2976205.0
2977597.0
2979452.0
2981035.0
2978574.0
2973794.0
2970885.0
2969504.0
2968852.0
2968754.0
2969472.0
2970040.0
2970462.0
2972978.0
2972724.0
2974038.0
2976044.0
2978169.0
2980416.0
2981871.0
2983143.0
2985859.0
2987814.0
2986792.0
2983891.0
2981025.0
2980459.0
2979600.0
2979335.0
2980068.0
2981240.0
2981980.0
2980786.0
2981525.0
2983341.0
2985031.0
2987061.0
2989037.0
2991109.0
2993010.0
2996840.0
2999261.0
3000053.0
2999895.0
2997601.0
2994752.0
2994324.0
2992960.0
2993384.0
2993956.0
2995167.0
2995954.0
2996753.0
2996246.0
2997670.0
2999342.0
3001320.0
3004197.0
3006294.0
3010191.0
3011175.0
3013842.0
3016095.0
3018633.0
3021512.0
3022113.0
3021930.0
3017643.0
3015997.0
3015397.0
3015727.0
3019543.0
3018890.0
3021095.0
3020256.0
3022185.0
3024323.0
3023783.0
3027117.0
3027458.0
3030487.0
3030540.0
3033236.0
3035676.0
3036559.0
3038157.0
3040565.0
3041999.0
3041264.0
3039699.0
3033514.0
3033698.0
3031790.0
3031470.0
3031773.0
3032096.0
3032406.0
3032665.0
3033228.0
3034018.0
3035025.0
3036548.0
3038088.0
3040454.0
3041992.0
3043934.0
3045655.0
3045286.0
3048846.0
3049535.0
3047823.0
3044447.0
3041828.0
3040080.0
3038732.0
3038216.0
3038198.0
3038291.0
3037981.0
3037527.0
3035911.0
3036548.0
3037017.0
3038177.0
3039498.0
3040837.0
3042540.0
3042881.0
3043990.0
3045958.0
3046142.0
3043416.0
3039519.0
3037654.0
3035129.0
3032233.0
3030186.0
3029635.0
3029285.0
3028824.0
3030236.0
3030398.0
3030728.0
3031173.0
3032086.0
3032781.0
3034143.0
3033573.0
3034704.0
3036106.0
3037411.0
3037772.0
3035138.0
3031530.0
3027159.0
3023621.0
3020380.0
3018304.0
3017587.0
3016844.0
3015821.0
3014769.0
3014306.0
3014083.0
3014106.0
3014326.0
3014981.0
3015648.0
3016593.0
3017055.0
3017846.0
3019049.0
3017787.0
3013363.0
3008067.0
3005297.0
3001114.0
2998639.0
2996118.0
2994709.0
2992438.0
2990412.0
2988936.0
2987823.0
2986925.0
2986100.0
2985616.0
2985601.0
2985172.0
2985416.0
2987054.0
2981341.0
2976557.0
2970498.0
2965099.0
2960971.0
2957841.0
2955815.0
2952168.0
2949900.0
2947434.0
2945713.0
2945860.0
2944302.0
2944765.0
2944571.0
2944642.0
2944748.0
2943629.0
2941823.0
2935928.0
2928808.0
2924017.0
2917031.0
2912588.0
2909823.0
2907820.0
2905402.0
2903134.0
2901271.0
2899886.0
2899136.0
2900464.0
2899572.0
2899806.0
2898768.0
2900571.0
2899885.0
2900697.0
2901338.0
2898032.0
2891241.0
2884230.0
2879109.0
2874820.0
2869237.0
2866375.0
2864888.0
2862484.0
2860699.0
2859458.0
2858736.0
2858058.0
2858123.0
2859839.0
2861361.0
2860833.0
2861778.0
2863635.0
2865301.0
2866762.0
2868887.0
2872283.0
2869876.0
2862112.0
2856823.0
2853631.0
2848792.0
2846532.0
2845327.0
2844268.0
2844421.0
2842286.0
2843357.0
2844058.0
2844593.0
2843945.0
2844982.0
2846444.0
2848374.0
2850117.0
2852182.0
2855383.0
2857683.0
2858567.0
2860716.0
2859477.0
2854843.0
2849822.0
2848023.0
2844837.0
2844954.0
2842996.0
2843148.0
2843228.0
2842879.0
2843133.0
2844188.0
2846938.0
2847161.0
2848740.0
2850895.0
2853246.0
2855676.0
2858304.0
2861857.0
2865227.0
2870527.0
2872714.0
2868039.0
2862592.0
2861087.0
2857462.0
2855650.0
2853613.0
2850229.0
2851593.0
2851029.0
2847988.0
2847675.0
2851486.0
2854872.0
2857596.0
2857071.0
2859886.0
2864143.0
2868223.0
2872806.0
2876166.0
2878192.0
2881906.0
2884428.0
2884758.0
2883453.0
2879963.0
2878783.0
2874656.0
2873431.0
2873047.0
2873080.0
2873098.0
2873323.0
2874511.0
2873933.0
2875180.0
2876820.0
2880573.0
2881327.0
2883197.0
2885085.0
2887712.0
2891958.0
2893485.0
2898293.0
2900268.0
2902756.0
2905833.0
2906638.0
2906206.0
2898997.0
2893039.0
2888094.0
2884878.0
2882734.0
2871698.0
2861459.0
2850774.0
2843994.0
2843706.0
2842041.0
2847239.0
2856272.0
2863684.0
2869710.0
2877951.0
2889954.0
2893505.0
2908908.0
2928335.0
2952681.0
2989210.0
3043781.0
3097859.0
3150945.0
3200707.0
3229138.0
3243968.0
3259767.0
3274840.0
3276756.0
3266413.0
3256319.0
3230640.0
3208658.0
3195646.0
3177499.0
3154085.0
3131924.0
3106940.0
3077103.0
3049552.0
3028754.0
3012740.0
3002064.0
2967619.0
2940725.0
2929054.0
2925335.0
2929023.0
2927968.0
2925923.0
2916075.0
2908693.0
2912536.0
2920520.0
2911770.0
2905389.0
2905393.0
2915803.0
2930579.0
2936123.0
2906350.0
2897272.0
2896729.0
2900943.0
2895557.0
2885519.0
2876610.0
2873268.0
2869361.0
2868069.0
2865799.0
2861478.0
2857447.0
2854261.0
2848221.0
2841705.0
2836091.0
2830214.0
2825259.0
2821297.0
2818315.0
2816808.0
2814685.0
2811949.0
2811157.0
2810666.0
2809944.0
2803967.0
2792010.0
2782891.0
2803844.0
2826637.0
2834980.0
2870495.0
2924981.0
2954314.0
3013589.0
3043182.0
2959132.0
2930179.0
2919990.0
2903382.0
2886460.0
2866049.0
2849696.0
2838345.0
2829073.0
2825568.0
2823474.0
2822073.0
2818114.0
2812906.0
2810395.0
2808400.0
2806744.0
2806569.0
2802601.0
2793302.0
2784383.0
2776856.0
2770960.0
2767468.0
2762794.0
2760242.0
2757959.0
2753549.0
2751362.0
2750781.0
2748849.0
2746639.0
2746021.0
2741576.0
2734530.0
2723464.0
2716183.0
2710135.0
2707311.0
2702502.0
2699902.0
2697146.0
2696077.0
2693827.0
2692133.0
2690201.0
2688496.0
2688312.0
2689279.0
2688605.0
2684180.0
2674651.0
2666500.0
2660105.0
2653470.0
2650166.0
2649667.0
2647091.0
2643678.0
2641941.0
2641751.0
2641532.0
2642288.0
2641087.0
2641779.0
2642709.0
2644812.0
2645796.0
2647346.0
2649056.0
2650615.0
2650558.0
2646557.0
2640651.0
2635653.0
2632156.0
2628328.0
2626725.0
2624609.0
2622962.0
2621670.0
2620865.0
2621010.0
2621397.0
2622617.0
2624127.0
2627256.0
2628448.0
2630043.0
2632643.0
2634598.0
2636952.0
2640741.0
2642373.0
2640396.0
2638604.0
2634650.0
2633839.0
2633227.0
2633145.0
2632943.0
2631501.0
2631741.0
2631792.0
2633927.0
2634904.0
2635963.0
2637110.0
2637794.0
2639523.0
2642872.0
2643768.0
2646428.0
2649530.0
2650724.0
2650726.0
2647002.0
2645846.0
2645569.0
2646524.0
2649628.0
2651208.0
2655523.0
2659522.0
2662369.0
2665058.0
2664371.0
2663796.0
2665618.0
2669292.0
2674447.0
2676877.0
2677972.0
2680038.0
2679973.0
2677071.0
2676246.0
2674560.0
2671274.0
2672102.0
2670542.0
2672413.0
2670872.0
2670978.0
2671549.0
2672468.0
2673769.0
2674896.0
2675825.0
2677526.0
2680529.0
2678797.0
2673872.0
2669822.0
2666248.0
2663973.0
2663222.0
2663353.0
2664109.0
2662619.0
2660675.0
2661255.0
2662730.0
2661758.0
2663289.0
2665221.0
2665537.0
2663429.0
2660583.0
2654091.0
2650830.0
2648610.0
2647871.0
2647639.0
2647450.0
2647322.0
2647228.0
2647603.0
2648645.0
2650139.0
2651282.0
2652977.0
2654811.0
2656449.0
2655928.0
2651332.0
2646353.0
2642300.0
2639126.0
2637532.0
2638177.0
2637704.0
2637244.0
2634900.0
2634854.0
2635672.0
2638030.0
2638916.0
2640007.0
2639098.0
2640793.0
2643150.0
2643822.0
2645686.0
2643887.0
2638838.0
2635133.0
2630548.0
2628015.0
2627016.0
2626410.0
2625504.0
2623424.0
2622415.0
2622562.0
2623162.0
2624520.0
2626245.0
2628353.0
2630406.0
2634791.0
2634791.0
2636537.0
2638813.0
2640295.0
2634911.0
2634911.0
2631435.0
2631031.0
2630476.0
2630081.0
2630326.0
2630628.0
2631111.0
2631764.0
2633555.0
2636455.0
2638266.0
2639799.0
2641505.0
2643752.0
2643498.0
2638741.0
2634354.0
2630622.0
2628323.0
2628669.0
2628901.0
2629114.0
2628923.0
2627919.0
2627953.0
2628674.0
2630206.0
2632461.0
2632259.0
2634040.0
2635577.0
2635485.0
2630630.0
2625124.0
2621110.0
2618237.0
2617715.0
2615644.0
2614477.0
2613338.0
2613288.0
2610689.0
2607899.0
2606577.0
2607055.0
2608786.0
2608738.0
2610416.0
2610815.0
2610548.0
2612613.0
2616156.0
2615964.0
2611822.0
2605642.0
2599717.0
2596270.0
2593454.0
2592267.0
2591090.0
2592279.0
2591672.0
2595960.0
2602641.0
2611769.0
2619193.0
2636525.0
2649984.0
2654186.0
2660503.0
2663038.0
2667168.0
2666860.0
2663292.0
2659619.0
2653289.0
2650311.0
2648729.0
2647706.0
2646740.0
2645473.0
2644099.0
2643593.0
2643781.0
2643846.0
2644528.0
2645994.0
2647749.0
2648939.0
2650071.0
2650838.0
2651113.0
2649915.0
2643997.0
2637475.0
2633884.0
2630892.0
2628843.0
2626502.0
2625745.0
2624493.0
2623411.0
2624214.0
2622248.0
2624774.0
2623980.0
2625064.0
2626466.0
2627819.0
2629368.0
2630854.0
2627077.0
2619809.0
2615070.0
2611888.0
2609935.0
2609597.0
2609656.0
2609963.0
2609462.0
2609501.0
2608602.0
2609449.0
2610660.0
2612011.0
2613629.0
2614928.0
2616560.0
2618485.0
2618711.0
2614918.0
2609702.0
2604523.0
2601476.0
2599595.0
2598362.0
2597723.0
2596038.0
2596657.0
2595965.0
2595769.0
2596184.0
2599074.0
2599429.0
2601273.0
2603234.0
2605360.0
2609217.0
2612172.0
2614022.0
2613598.0
2609256.0
2605926.0
2602681.0
2601234.0
2600357.0
2602892.0
2603611.0
2602832.0
2603198.0
2604539.0
2606537.0
2608551.0
2612153.0
2614462.0
2617200.0
2618344.0
2621327.0
2625295.0
2627164.0
2631996.0
2632926.0
2631448.0
2628129.0
2625637.0
2624622.0
2624486.0
2626573.0
2627158.0
2628440.0
2627781.0
2628680.0
2630083.0
2632068.0
2633349.0
2635748.0
2637521.0
2639943.0
2642356.0
2644791.0
2648742.0
2651357.0
2651960.0
2650708.0
2648037.0
2646132.0
2646749.0
2644797.0
2645659.0
2647123.0
2648415.0
2649485.0
2650337.0
2652318.0
2654397.0
2656446.0
2659840.0
2662233.0
2664717.0
2668511.0
2669923.0
2672449.0
2675314.0
2675424.0
2673069.0
2670283.0
2669213.0
2669453.0
2668889.0
2670316.0
2669451.0
2670103.0
2670576.0
2671736.0
2673281.0
2674609.0
2676295.0
2678384.0
2680182.0
2682301.0
2685574.0
2688210.0
2690434.0
2691538.0
2688867.0
2685430.0
2682516.0
2680863.0
2680527.0
2679878.0
2680029.0
2680237.0
2679052.0
2679833.0
2678393.0
2678857.0
2681388.0
2681237.0
2682666.0
2684108.0
2686074.0
2689430.0
2689842.0
2691506.0
2693691.0
2692670.0
2690884.0
2685663.0
2685643.0
2682271.0
2681708.0
2681750.0
2681905.0
2682404.0
2682492.0
2681025.0
2681662.0
2682706.0
2683190.0
2684309.0
2686191.0
2687308.0
2688316.0
2691379.0
2690870.0
2687463.0
2681699.0
2679106.0
2677023.0
2677654.0
2676037.0
2675687.0
2675354.0
2674382.0
2674632.0
2675352.0
2675784.0
2676914.0
2677976.0
2679644.0
2681266.0
2681183.0
2678457.0
2675722.0
2671210.0
2670092.0
2667545.0
2666932.0
2666908.0
2666598.0
2665757.0
2665746.0
2666164.0
2666302.0
2667253.0
2668315.0
2669701.0
2670838.0
2672535.0
2673486.0
2668335.0
2664327.0
2661187.0
2658729.0
2658546.0
2658122.0
2656079.0
2655452.0
2654836.0
2656308.0
2656437.0
2655144.0
2656259.0
2657147.0
2658341.0
2659950.0
2662419.0
2663964.0
2664165.0
2659166.0
2655244.0
2653806.0
2651778.0
2649334.0
2647786.0
2647865.0
2647889.0
2647891.0
2648256.0
2650002.0
2649330.0
2652136.0
2652211.0
2654033.0
2655702.0
2657654.0
2661277.0
2663622.0
2665861.0
2667434.0
2670904.0
2671376.0
2668737.0
2665930.0
2664354.0
2663188.0
2661397.0
2661785.0
2664035.0
2662839.0
2663148.0
2665078.0
2665361.0
2667393.0
2669410.0
2671360.0
2672824.0
2674022.0
2677550.0
2680158.0
2680763.0
2685035.0
2687675.0
2688408.0
2686704.0
2683208.0
2682393.0
2683099.0
2684239.0
2684023.0
2686598.0
2686876.0
2687442.0
2688485.0
2690353.0
2691884.0
2693774.0
2696684.0
2699925.0
2700976.0
2703140.0
2705665.0
2709850.0
2712412.0
2712083.0
2712391.0
2709634.0
2709005.0
2710125.0
2711037.0
2710570.0
2712040.0
2713132.0
2714721.0
2715820.0
2717152.0
2718926.0
2720999.0
2724534.0
2725033.0
2727444.0
2731058.0
2732829.0
2736175.0
2737322.0
2738863.0
2737521.0
2735462.0
2734248.0
2734568.0
2734914.0
2734892.0
2734279.0
2735081.0
2735477.0
2735858.0
2738344.0
2739844.0
2739287.0
2742491.0
2742095.0
2744674.0
2745507.0
2747465.0
2748773.0
2750682.0
2752373.0
2751467.0
2749066.0
2747729.0
2747235.0
2744845.0
2744558.0
2744909.0
2745151.0
2746445.0
2745232.0
2745888.0
2746156.0
2748953.0
2748555.0
2749633.0
2752466.0
2753019.0
2754938.0
2754985.0
2756458.0
2758701.0
2755817.0
2752201.0
2749760.0
2748121.0
2746899.0
2745891.0
2745791.0
2747374.0
2745303.0
2744848.0
2744855.0
2746961.0
2746139.0
2747190.0
2749518.0
2749295.0
2750247.0
2751640.0
2754524.0
2753993.0
2752416.0
2749201.0
2744363.0
2743214.0
2739980.0
2740256.0
2738219.0
2738243.0
2738126.0
2735902.0
2735649.0
2735712.0
2736184.0
2736495.0
2736864.0
2738888.0
2738455.0
2739609.0
2740565.0
2741350.0
2740078.0
2735919.0
2730780.0
2727786.0
2722806.0
2720238.0
2719675.0
2717139.0
2715016.0
2713834.0
2711842.0
2709253.0
2708474.0
2708591.0
2707063.0
2706537.0
2707352.0
2708163.0
2706715.0
2708477.0
2707491.0
2704411.0
2699425.0
2691703.0
2687806.0
2681617.0
2677553.0
2675092.0
2673089.0
2671780.0
2667673.0
2665546.0
2663984.0
2662278.0
2661408.0
2660809.0
2660937.0
2661738.0
2659941.0
2659853.0
2660098.0
2660676.0
2660925.0
2654538.0
2648393.0
2640671.0
2635314.0
2630661.0
2626883.0
2624631.0
2621642.0
2618523.0
2615813.0
2613935.0
2614063.0
2612704.0
2610357.0
2609781.0
2609524.0
2609022.0
2608591.0
2609528.0
2608797.0
2606469.0
2597575.0
2590935.0
2585242.0
2579133.0
2575078.0
2572528.0
2570369.0
2567484.0
2566293.0
2563041.0
2561832.0
2561346.0
2561753.0
2560408.0
2562560.0
2560879.0
2562565.0
2562106.0
2564453.0
2562418.0
2554257.0
2547251.0
2540386.0
2534338.0
2528754.0
2525842.0
2523834.0
2521071.0
2518581.0
2517726.0
2515206.0
2514398.0
2513828.0
2514111.0
2514485.0
2514675.0
2515618.0
2516741.0
2519057.0
2520122.0
2518304.0
2510738.0
2503575.0
2495286.0
2489800.0
2485652.0
2483967.0
2482196.0
2478764.0
2476271.0
2474809.0
2475334.0
2474887.0
2474809.0
2475399.0
2476312.0
2477192.0
2478434.0
2480054.0
2481450.0
2483083.0
2485098.0
2485165.0
2481767.0
2474881.0
2467833.0
2464043.0
2460065.0
2455999.0
2454157.0
2452724.0
2451321.0
2451058.0
2450004.0
2448513.0
2448741.0
2449783.0
2450540.0
2451664.0
2452711.0
2454363.0
2457478.0
2457568.0
2459594.0
2461738.0
2461314.0
2455887.0
2449101.0
2445900.0
2441283.0
2439207.0
2438474.0
2439192.0
2436924.0
2437458.0
2435788.0
2436111.0
2437097.0
2438709.0
2440534.0
2442025.0
2444153.0
2446179.0
2448889.0
2451141.0
2455468.0
2454246.0
2450896.0
2443622.0
2438970.0
2435661.0
2434722.0
2433588.0
2433466.0
2433281.0
2431414.0
2431393.0
2432219.0
2433408.0
2434854.0
2436578.0
2438513.0
2440509.0
2443082.0
2445461.0
2447679.0
2450441.0
2452030.0
2448808.0
2442963.0
2437780.0
2434091.0
2431513.0
2430860.0
2430091.0
2429803.0
2429313.0
2429999.0
2429761.0
2430481.0
2432227.0
2433701.0
2435709.0
2438955.0
2439631.0
2443026.0
2444356.0
2446748.0
2449480.0
2451498.0
2448613.0
2442516.0
2436891.0
2432916.0
2430088.0
2428770.0
2428308.0
2427766.0
2426365.0
2425037.0
2425746.0
2427746.0
2428481.0
2428651.0
2430600.0
2432700.0
2434821.0
2437134.0
2439677.0
2442683.0
2442032.0
2438157.0
2431200.0
2428144.0
2425444.0
2423363.0
2422577.0
2423181.0
2423263.0
2422670.0
2422080.0
2421946.0
2423581.0
2426819.0
2427243.0
2429455.0
2432132.0
2434453.0
2436935.0
2440053.0
2441000.0
2436512.0
2430525.0
2425563.0
2422758.0
2420505.0
2419983.0
2419644.0
2419605.0
2418306.0
2417168.0
2417072.0
2417538.0
2419953.0
2419841.0
2421564.0
2423514.0
2425777.0
2427793.0
2430135.0
2428591.0
2422834.0
2416561.0
2412053.0
2408702.0
2408369.0
2408980.0
2408179.0
2407279.0
2405508.0
2405738.0
2406257.0
2406845.0
2408004.0
2409150.0
2411514.0
2413730.0
2416041.0
2417973.0
2415318.0
2408787.0
2402925.0
2398898.0
2395674.0
2394104.0
2393823.0
2393610.0
2392616.0
2391452.0
2391230.0
2391705.0
2392613.0
2395210.0
2394746.0
2396168.0
2397846.0
2400085.0
2401964.0
2400995.0
2395617.0
2389394.0
2385141.0
2383303.0
2381593.0
2381790.0
2382099.0
2381888.0
2381659.0
2382041.0
2383064.0
2384577.0
2386326.0
2388324.0
2390364.0
2392700.0
2395123.0
2395978.0
2391737.0
2385481.0
2381335.0
2378574.0
2377500.0
2377575.0
2377643.0
2377943.0
2377816.0
2380087.0
2381800.0
2383217.0
2385337.0
2387910.0
2389058.0
2391449.0
2390063.0
2384893.0
2380183.0
2378256.0
2376808.0
2376520.0
2375821.0
2376457.0
2376899.0
2377575.0
2378590.0
2380492.0
2382484.0
2386103.0
2387802.0
2389652.0
2390037.0
2386009.0
2380168.0
2375650.0
2373162.0
2373815.0
2374473.0
2375005.0
2373313.0
2373696.0
2375135.0
2377161.0
2381019.0
2383805.0
2385725.0
2387923.0
2390768.0
2394207.0
2396830.0
2391439.0
2386349.0
2382738.0
2381002.0
2380882.0
2382277.0
2383588.0
2383990.0
2386112.0
2386182.0
2388112.0
2391075.0
2393860.0
2397114.0
2401580.0
2404621.0
2406507.0
2410137.0
2413603.0
2414235.0
2409758.0
2406011.0
2404008.0
2402257.0
2403560.0
2405386.0
2406899.0
2409216.0
2410372.0
2411592.0
2414888.0
2417240.0
2420482.0
2423731.0
2423095.0
2415546.0
2406473.0
2396041.0
2392326.0
2397082.0
2412606.0
2400622.0
2387419.0
2400565.0
2404654.0
2388315.0
2379296.0
2379794.0
2383693.0
2386286.0
2393855.0
2405515.0
2418386.0
2435195.0
2460853.0
2486433.0
2491699.0
2475001.0
2460338.0
2454248.0
2487315.0
2519063.0
2531701.0
2542255.0
2537980.0
2526271.0
2509499.0
2492609.0
2474926.0
2512637.0
2504183.0
2497915.0
2501978.0
2501585.0
2505990.0
2519370.0
2533346.0
2519721.0
2540215.0
2578555.0
2595204.0
2588555.0
2590075.0
2591638.0
2596359.0
2601904.0
2604052.0
2607168.0
2611598.0
2615248.0
2619105.0
2620651.0
2620261.0
2617112.0
2613752.0
2612684.0
2612898.0
2614110.0
2615819.0
2617601.0
2618874.0
2620169.0
2622136.0
2624914.0
2628306.0
2631513.0
2634744.0
2638840.0
2643934.0
2646851.0
2646136.0
2643682.0
2641870.0
2640903.0
2640562.0
2641810.0
2641809.0
2644850.0
2645564.0
2648497.0
2650853.0
2653685.0
2656251.0
2659477.0
2662652.0
2664353.0
2668716.0
2672661.0
2675655.0
2675061.0
2672490.0
2670463.0
2668577.0
2668803.0
2669728.0
2671744.0
2673178.0
2674757.0
2676728.0
2679119.0
2681999.0
2684761.0
2687957.0
2692372.0
2695775.0
2697450.0
2700977.0
2704504.0
2706677.0
2705740.0
2703837.0
2702791.0
2702198.0
2702727.0
2704342.0
2707778.0
2708303.0
2709264.0
2712608.0
2715268.0
2717111.0
2720584.0
2723621.0
2724754.0
2729290.0
2731868.0
2735030.0
2738492.0
2742094.0
2745907.0
2747106.0
2746159.0
2744986.0
2745446.0
2746317.0
2745738.0
2747117.0
2749008.0
2750630.0
2752564.0
2754587.0
2757010.0
2759509.0
2761921.0
2765304.0
2769128.0
2772882.0
2776298.0
2779655.0
2782949.0
2787445.0
2790119.0
2795182.0
2794460.0
2793697.0
2793503.0
2794870.0
2796103.0
2797763.0
2798178.0
2800496.0
2802292.0
2803809.0
2806300.0
2809313.0
2812656.0
2813704.0
2815237.0
2817836.0
2822399.0
2823726.0
2826829.0
2829366.0
2834136.0
2835442.0
2836634.0
2835680.0
2834953.0
2834995.0
2835635.0
2836883.0
2838578.0
2839881.0
2841684.0
2843055.0
2844760.0
2848473.0
2850761.0
2851354.0
2853857.0
2857562.0
2858555.0
2862779.0
2864077.0
2866718.0
2864194.0
2862184.0
2861379.0
2860841.0
2861120.0
2863255.0
2862729.0
2863744.0
2865488.0
2864720.0
2865869.0
2867068.0
2869706.0
2871638.0
2872164.0
2873737.0
2875355.0
2877296.0
2876904.0
2875823.0
2872974.0
2870537.0
2866995.0
2865349.0
2865060.0
2864702.0
2864134.0
2863482.0
2863013.0
2863359.0
2863729.0
2864692.0
2865338.0
2865200.0
2867673.0
2868891.0
2868212.0
2869491.0
2870228.0
2868290.0
2865311.0
2860307.0
2856538.0
2853004.0
2849291.0
2847492.0
2845843.0
2844259.0
2844099.0
2843008.0
2842240.0
2839940.0
2839719.0
2839412.0
2839807.0
2839830.0
2840230.0
2840763.0
2841328.0
2841748.0
2841752.0
2837442.0
2831645.0
2825973.0
2821432.0
2817917.0
2815565.0
2813801.0
2811385.0
2809089.0
2806934.0
2805118.0
2804107.0
2803767.0
2803251.0
2802752.0
2802717.0
2802559.0
2802254.0
2802677.0
2800421.0
2793738.0
2786506.0
2779625.0
2773592.0
2769026.0
2765324.0
2762962.0
2759182.0
2757279.0
2752210.0
2749758.0
2748344.0
2748294.0
2747526.0
2746675.0
2746074.0
2744271.0
2743686.0
2739424.0
2731510.0
2722601.0
2716934.0
2711148.0
2704549.0
2701042.0
2697996.0
2695207.0
2693413.0
2691242.0
2688844.0
2687649.0
2686526.0
2688323.0
2688584.0
2687104.0
2687217.0
2687709.0
2689915.0
2685270.0
2679395.0
2670715.0
2664388.0
2659410.0
2655390.0
2653224.0
2651301.0
2648912.0
2647025.0
2644964.0
2644223.0
2644160.0
2643714.0
2644017.0
2644005.0
2645035.0
2646850.0
2648527.0
2645187.0
2638675.0
2632303.0
2628451.0
2623557.0
2621171.0
2620174.0
2619131.0
2617733.0
2616645.0
2616148.0
2616530.0
2617001.0
2617928.0
2620464.0
2621497.0
2619145.0
2611974.0
2606462.0
2602952.0
2600661.0
2599923.0
2599744.0
2599424.0
2598709.0
2598283.0
2598670.0
2599555.0
2600704.0
2602411.0
2604287.0
2604565.0
2600582.0
2594906.0
2590406.0
2587300.0
2585813.0
2586620.0
2586592.0
2585013.0
2584468.0
2584662.0
2585425.0
2586280.0
2587220.0
2589064.0
2591269.0
2592531.0
2589512.0
2583973.0
2579026.0
2575564.0
2574133.0
2571595.0
2571595.0
2571791.0
2571283.0
2572681.0
2573581.0
2574799.0
2576159.0
2577439.0
2577910.0
2580366.0
2582763.0
2586639.0
2588562.0
2590129.0
2592783.0
2592469.0
2587884.0
2583500.0
2580239.0
2579086.0
2577018.0
2577707.0
2578031.0
2577986.0
2577754.0
2578113.0
2577077.0
2577273.0
2580049.0
2580883.0
2584138.0
2589115.0
2591784.0
2594021.0
2597599.0
2600434.0
2602765.0
2605374.0
2608484.0
2609251.0
2604953.0
2602076.0
2597799.0
2596871.0
2596444.0
2597613.0
2599652.0
2601022.0
2601379.0
2601922.0
2604434.0
2607156.0
2611252.0
2612726.0
2617576.0
2619278.0
2621634.0
2626138.0
2629483.0
2634454.0
2635127.0
2636844.0
2639349.0
2640648.0
2640794.0
2639927.0
2642176.0
2645931.0
2649365.0
2649876.0
2650760.0
2655835.0
2659430.0
2664481.0
2668764.0
2672039.0
2676028.0
2677645.0
2678639.0
2680516.0
2680776.0
2678851.0
2676729.0
2674367.0
2673708.0
2674040.0
2675473.0
2677638.0
2679116.0
2680618.0
2682359.0
2683302.0
2685160.0
2687676.0
2690104.0
2692771.0
2695548.0
2698150.0
2701120.0
2703932.0
2706009.0
2705703.0
2703508.0
2703179.0
2702321.0
2702021.0
2701768.0
2704410.0
2705292.0
2704593.0
2705579.0
2707390.0
2709077.0
2711206.0
2713624.0
2716141.0
2717694.0
2720326.0
2724193.0
2725022.0
2727797.0
2730287.0
2729547.0
2727572.0
2725632.0
2724973.0
2724898.0
2725366.0
2726838.0
2727996.0
2729006.0
2730137.0
2731340.0
2734813.0
2736701.0
2738733.0
2740700.0
2742882.0
2745162.0
2746658.0
2748084.0
2747964.0
2745980.0
2744078.0
2743033.0
2744353.0
2744677.0
2745463.0
2746516.0
2747078.0
2747708.0
2748809.0
2750189.0
2751989.0
2753547.0
2754151.0
2755696.0
2757690.0
2758844.0
2757419.0
2754182.0
2751892.0
2750891.0
2749887.0
2750001.0
2750553.0
2752559.0
2750956.0
2751385.0
2752828.0
2754195.0
2755368.0
2758137.0
2758230.0
2760113.0
2761721.0
2764953.0
2764557.0
2759544.0
2756031.0
2753850.0
2752405.0
2752405.0
2750697.0
2752506.0
2750290.0
2750074.0
2750074.0
2750487.0
2753014.0
2753379.0
2754528.0
2756671.0
2757508.0
2759583.0
2761352.0
2762291.0
2759998.0
2756034.0
2753068.0
2750513.0
2748519.0
2749203.0
2747910.0
2747162.0
2748003.0
2747561.0
2746418.0
2748485.0
2747819.0
2748375.0
2749756.0
2750845.0
2752529.0
2753530.0
2755067.0
2756988.0
2757535.0
2753584.0
2748607.0
2746340.0
2744428.0
2744390.0
2743653.0
2745637.0
2744730.0
2742761.0
2743140.0
2743659.0
2744466.0
2745575.0
2746564.0
2747923.0
2749360.0
2752268.0
2751782.0
2746853.0
2742820.0
2740301.0
2738269.0
2737184.0
2737356.0
2737635.0
2736995.0
2736974.0
2737466.0
2737866.0
2738588.0
2739702.0
2741018.0
2742080.0
2743343.0
2745165.0
2744330.0
2742328.0
2738303.0
2735117.0
2732091.0
2730793.0
2731571.0
2730250.0
2729496.0
2729358.0
2730198.0
2730139.0
2731194.0
2731231.0
2733597.0
2733737.0
2735239.0
2738051.0
2738379.0
2740281.0
2739218.0
2733637.0
2730826.0
2727714.0
2727156.0
2725341.0
2725582.0
2725120.0
2726443.0
2725410.0
2725162.0
2725672.0
2726864.0
2728137.0
2729501.0
2730863.0
2732593.0
2733931.0
2736011.0
2738271.0
2739650.0
2738163.0
2736119.0
2733095.0
2730424.0
2729707.0
2730595.0
2730936.0
2732763.0
2732614.0
2732662.0
2732469.0
2733807.0
2735503.0
2737149.0
2739490.0
2742666.0
2742733.0
2746712.0
2748674.0
2749370.0
2752245.0
2749519.0
2747147.0
2745666.0
2745072.0
2745371.0
2746720.0
2747661.0
2748548.0
2750668.0
2751565.0
2752432.0
2752939.0
2754666.0
2756568.0
2759781.0
2761899.0
2763908.0
2764273.0
2765324.0
2763435.0
2761191.0
2760095.0
2759434.0
2759532.0
2760456.0
2761685.0
2763786.0
2763866.0
2764006.0
2765612.0
2767651.0
2768849.0
2769269.0
2772868.0
2772499.0
2774307.0
2773807.0
2770565.0
2767940.0
2766095.0
2764792.0
2764625.0
2764977.0
2765432.0
2765510.0
2765764.0
2766026.0
2766923.0
2769378.0
2769290.0
2772135.0
2773165.0
2774496.0
2774300.0
2775201.0
2772799.0
2769022.0
2765522.0
2763201.0
2761783.0
2760987.0
2762277.0
2760146.0
2759891.0
2760933.0
2761037.0
2759836.0
2760443.0
2761130.0
2763784.0
2763726.0
2765204.0
2767726.0
2767509.0
2769055.0
2769809.0
2765832.0
2760594.0
2757800.0
2755930.0
2755481.0
2755401.0
2756432.0
2755985.0
2755640.0
2755347.0
2753985.0
2754856.0
2755313.0
2756476.0
2757796.0
2760087.0
2761345.0
2761516.0
2761696.0
2758555.0
2754511.0
2751548.0
2749969.0
2749425.0
2748458.0
2748426.0
2748599.0
2747334.0
2745880.0
2745872.0
2746419.0
2747072.0
2748143.0
2749027.0
2750154.0
2752680.0
2750353.0
2745528.0
2741766.0
2738767.0
2735740.0
2735700.0
2735348.0
2734308.0
2733105.0
2732292.0
2731852.0
2731783.0
2731548.0
2730725.0
2731817.0
2732176.0
2732544.0
2728792.0
2722903.0
2718016.0
2713675.0
2710848.0
2709278.0
2709367.0
2707652.0
2706168.0
2702911.0
2703057.0
2701732.0
2701420.0
2701895.0
2702566.0
2704401.0
2704789.0
2701569.0
2696672.0
2690299.0
2685091.0
2681749.0
2678423.0
2676690.0
2674643.0
2671492.0
2669958.0
2669027.0
2669697.0
2669047.0
2667429.0
2668101.0
2669062.0
2671004.0
2670159.0
2671311.0
2670838.0
2666206.0
2660153.0
2655524.0
2651402.0
2648641.0
2647408.0
2646804.0
2645693.0
2644612.0
2644128.0
2644063.0
2644655.0
2646470.0
2647687.0
2647225.0
2649356.0
2650147.0
2652165.0
2653980.0
2652631.0
2648360.0
2643793.0
2640815.0
2638401.0
2637282.0
2637309.0
2637478.0
2636844.0
2636863.0
2638504.0
2639141.0
2640464.0
2641524.0
2642563.0
2643400.0
2646733.0
2648243.0
2648826.0
2647495.0
2643167.0
2639406.0
2637150.0
2635550.0
2634991.0
2636744.0
2635710.0
2635857.0
2636090.0
2636588.0
2637919.0
2639281.0
2641302.0
2642861.0
2644900.0
2647331.0
2648057.0
2645283.0
2641127.0
2638138.0
2636214.0
2634820.0
2634938.0
2635443.0
2635909.0
2635831.0
2636574.0
2637603.0
2639187.0
2641009.0
2643124.0
2645048.0
2648771.0
2649753.0
2653112.0
2655554.0
2653374.0
2648078.0
2645066.0
2643020.0
2642120.0
2643850.0
2644378.0
2645004.0
2645464.0
2645941.0
2646105.0
2648949.0
2649846.0
2652862.0
2655339.0
2656952.0
2658963.0
2663511.0
2666015.0
2669220.0
2669386.0
2667161.0
2664433.0
2662438.0
2660923.0
2660691.0
2661698.0
2664235.0
2663950.0
2664457.0
2665974.0
2667606.0
2669391.0
2671832.0
2675350.0
2677551.0
2679651.0
2682266.0
2685573.0
2687439.0
2691558.0
2693482.0
2690389.0
2687777.0
2686319.0
2686335.0
2687485.0
2686927.0
2688080.0
2688978.0
2689857.0
2690937.0
2692573.0
2694029.0
2697738.0
2700117.0
2702064.0
2704550.0
2707025.0
2709215.0
2709792.0
2705912.0
2703111.0
2701665.0
2702296.0
2700664.0
2701626.0
2702320.0
2704665.0
2705292.0
2706362.0
2706177.0
2708654.0
2710820.0
2712873.0
2713414.0
2715607.0
2717859.0
2720857.0
2717063.0
2713340.0
2711669.0
2709341.0
2707458.0
2708835.0
2708847.0
2709102.0
2707351.0
2707359.0
2707760.0
2708771.0
2710152.0
2712603.0
2712941.0
2714906.0
2716101.0
2717730.0
2720837.0
2719199.0
2715537.0
2710878.0
2707507.0
2704964.0
2703252.0
2704400.0
2703875.0
2702129.0
2701499.0
2701321.0
2701741.0
2703054.0
2704789.0
2704637.0
2705960.0
2707452.0
2710307.0
2710679.0
2712604.0
2713391.0
2710607.0
2707466.0
2701935.0
2699518.0
2699221.0
2696988.0
2696760.0
2696285.0
2695808.0
2695357.0
2695611.0
2696076.0
2696916.0
2699415.0
2699114.0
2700499.0
2701953.0
2703398.0
2706335.0
2706968.0
2708980.0
2705351.0
2700418.0
2696550.0
2694307.0
2693019.0
2692492.0
2692513.0
2693703.0
2692971.0
2692565.0
2692880.0
2691991.0
2692845.0
2694017.0
2695219.0
2696370.0
2698686.0
2700733.0
2702772.0
2701469.0
2696163.0
2691328.0
2687462.0
2684735.0
2684598.0
2684092.0
2683330.0
2681433.0
2680647.0
2680179.0
2680257.0
2682315.0
2681952.0
2683069.0
2684144.0
2685742.0
2686811.0
2688612.0
2689539.0
2688214.0
2681494.0
2676552.0
2672488.0
2671113.0
2667680.0
2666679.0
2665978.0
2666160.0
2665246.0
2663498.0
2663511.0
2665349.0
2664580.0
2665354.0
2666453.0
2667819.0
2669103.0
2670693.0
2672554.0
2675199.0
2670149.0
2665747.0
2660480.0
2656929.0
2656040.0
2654638.0
2653830.0
2651891.0
2652332.0
2651510.0
2651219.0
2650465.0
2652523.0
2653996.0
2653696.0
2656304.0
2656713.0
2658274.0
2660116.0
2662125.0
2664506.0
2667411.0
2663842.0
2657712.0
2653366.0
2650860.0
2648692.0
2647755.0
2647888.0
2647413.0
2646805.0
2646125.0
2647773.0
2647150.0
2648126.0
2649318.0
2652133.0
2652293.0
2653557.0
2655225.0
2658639.0
2660701.0
2662765.0
2660991.0
2657630.0
2651865.0
2648730.0
2646822.0
2646023.0
2646237.0
2646319.0
2647365.0
2646895.0
2646916.0
2647442.0
2648253.0
2647826.0
2649312.0
2650382.0
2651959.0
2653518.0
2654709.0
2651198.0
2646064.0
2641481.0
2638226.0
2636475.0
2635384.0
2634916.0
2634315.0
2633291.0
2632570.0
2632144.0
2632631.0
2633431.0
2633966.0
2634995.0
2635844.0
2637133.0
2636307.0
2631474.0
2626432.0
2620960.0
2616810.0
2613128.0
2610332.0
2609246.0
2607629.0
2606029.0
2605106.0
2605067.0
2603574.0
2603970.0
2605619.0
2606177.0
2605650.0
2606114.0
2607196.0
2606171.0
2599824.0
2592462.0
2586420.0
2582154.0
2579401.0
2577153.0
2575122.0
2572471.0
2569922.0
2568455.0
2567777.0
2568751.0
2568530.0
2567425.0
2567828.0
2568862.0
2569595.0
2570730.0
2571947.0
2572542.0
2568466.0
2561045.0
2554203.0
2549450.0
2546779.0
2545164.0
2543675.0
2540446.0
2538421.0
2538239.0
2535907.0
2535960.0
2535677.0
2536200.0
2538409.0
2539528.0
2540364.0
2541629.0
2542740.0
2538487.0
2531714.0
2524658.0
2521110.0
2515805.0
2514061.0
2512805.0
2511410.0
2510888.0
2509627.0
2509081.0
2508732.0
2508813.0
2508332.0
2509056.0
2509989.0
2511363.0
2510966.0
2505321.0
2497759.0
2491237.0
2487109.0
2483011.0
2480583.0
2479342.0
2477250.0
2476079.0
2474431.0
2473860.0
2474068.0
2474503.0
2475170.0
2475927.0
2477128.0
2478422.0
2479444.0
2475632.0
2467608.0
2459581.0
2453726.0
2448391.0
2445319.0
2443664.0
2441795.0
2441452.0
2438216.0
2437180.0
2436692.0
2438453.0
2437766.0
2438821.0
2440062.0
2441576.0
2443392.0
2445734.0
2448382.0
2444340.0
2435368.0
2428738.0
2423161.0
2418856.0
2418502.0
2417770.0
2415586.0
2414729.0
2414048.0
2414429.0
2415302.0
2417057.0
2418816.0
2420844.0
2423276.0
2425751.0
2428552.0
2431544.0
2434813.0
2437831.0
2438564.0
2434144.0
2428745.0
2424323.0
2422889.0
2420670.0
2420841.0
2421698.0
2422164.0
2422063.0
2424685.0
2425723.0
2428820.0
2429634.0
2432756.0
2435556.0
2438954.0
2442209.0
2446874.0
2450798.0
2453014.0
2453421.0
2449131.0
2443950.0
2442009.0
2441553.0
2443123.0
2443273.0
2444814.0
2446138.0
2448689.0
2450638.0
2451597.0
2454433.0
2457866.0
2461295.0
2465052.0
2469839.0
2473872.0
2477202.0
2479588.0
2477160.0
2474811.0
2471871.0
2468711.0
2468610.0
2469803.0
2471417.0
2473206.0
2474517.0
2476234.0
2478206.0
2481064.0
2484171.0
2489003.0
2492336.0
2494066.0
2497876.0
2501912.0
2506021.0
2510325.0
2508182.0
2503265.0
2501027.0
2500011.0
2499502.0
2500724.0
2502763.0
2505557.0
2507088.0
2508782.0
2510137.0
2512814.0
2516205.0
2518344.0
2521809.0
2525222.0
2528898.0
2532747.0
2536480.0
2540598.0
2543328.0
2542582.0
2539896.0
2536880.0
2536392.0
2536853.0
2539407.0
2541344.0
2543189.0
2544401.0
2545593.0
2547014.0
2549514.0
2552587.0
2555684.0
2558629.0
2563694.0
2565412.0
2569089.0
2572993.0
2576969.0
2580081.0
2578179.0
2575631.0
2574338.0
2574047.0
2574967.0
2574934.0
2578565.0
2578630.0
2580033.0
2581796.0
2584181.0
2586534.0
2589501.0
2592410.0
2595918.0
2598751.0
2602263.0
2606231.0
2607030.0
2603953.0
2602744.0
2600721.0
2600365.0
2600626.0
2602299.0
2603820.0
2605034.0
2605885.0
2607500.0
2610954.0
2613211.0
2613383.0
2616376.0
2619145.0
2622262.0
2624964.0
2625177.0
2623865.0
2620822.0
2617521.0
2616357.0
2616575.0
2617486.0
2620091.0
2621021.0
2620889.0
2621628.0
2623444.0
2625482.0
2629127.0
2631335.0
2633268.0
2634833.0
2638621.0
2640481.0
2640652.0
2637811.0
2635877.0
2632865.0
2632249.0
2630549.0
2631459.0
2632610.0
2635255.0
2634806.0
2637138.0
2637781.0
2639620.0
2642975.0
2644196.0
2646667.0
2648947.0
2651519.0
2654596.0
2657566.0
2662011.0
2663263.0
2659237.0
2656380.0
2654993.0
2655316.0
2654310.0
2656188.0
2657714.0
2658636.0
2657890.0
2658932.0
2660434.0
2662221.0
2664197.0
2666729.0
2669025.0
2673099.0
2675009.0
2676801.0
2681182.0
2683868.0
2684692.0
2683000.0
2680131.0
2678087.0
2676930.0
2676666.0
2677564.0
2678922.0
2680830.0
2682153.0
2682438.0
2684555.0
2684829.0
2686619.0
2688739.0
2691032.0
2693370.0
2697383.0
2699811.0
2702329.0
2702002.0
2699349.0
2695958.0
2693615.0
2693735.0
2692993.0
2693446.0
2692808.0
2692868.0
2693918.0
2693518.0
2694747.0
2697292.0
2698678.0
2699039.0
2701069.0
2704231.0
2704906.0
2706922.0
2708752.0
2705961.0
2701809.0
2698981.0
2697715.0
2694928.0
2694648.0
2694413.0
2695014.0
2696065.0
2694420.0
2696094.0
2695649.0
2697955.0
2697999.0
2699164.0
2700910.0
2703931.0
2705964.0
2706781.0
2709950.0
2708053.0
2702056.0
2698263.0
2696747.0
2694776.0
2694131.0
2692626.0
2692561.0
2693317.0
2692792.0
2691621.0
2692031.0
2692753.0
2695401.0
2695226.0
2696556.0
2697952.0
2699708.0
2702659.0
2702310.0
2699189.0
2694543.0
2691504.0
2689413.0
2686434.0
2686320.0
2687529.0
2685346.0
2684683.0
2685883.0
2685268.0
2686289.0
2688014.0
2687549.0
2690558.0
2690104.0
2691515.0
2692619.0
2686968.0
2681787.0
2677873.0
2675000.0
2674513.0
2672719.0
2672023.0
2671205.0
2671612.0
2669475.0
2669898.0
2669709.0
2669895.0
2669744.0
2670558.0
2673140.0
2671557.0
2664805.0
2659201.0
2655253.0
2650948.0
2650156.0
2647895.0
2647308.0
2647069.0
2644746.0
2644046.0
2645615.0
2646106.0
2645560.0
2646365.0
2647623.0
2648671.0
2650090.0
2652082.0
2646650.0
2640250.0
2634680.0
2631531.0
2629384.0
2627883.0
2625369.0
2624282.0
2623083.0
2623303.0
2623030.0
2624488.0
2624113.0
2625550.0
2626874.0
2628432.0
2630880.0
2631331.0
2634120.0
2633384.0
2629430.0
2623886.0
2621530.0
2617620.0
2617802.0
2616571.0
2616447.0
2616028.0
2615562.0
2615959.0
2616951.0
2618435.0
2619848.0
2621389.0
2623341.0
2625421.0
2629209.0
2631588.0
2632725.0
2633678.0
2631104.0
2627663.0
2626805.0
2624420.0
2625187.0
2626294.0
2626060.0
2626565.0
2627150.0
2628263.0
2631237.0
2631513.0
2635707.0
2636853.0
2639155.0
2641647.0
2644102.0
2647245.0
2648280.0
2647196.0
2644618.0
2643982.0
2643481.0
2643867.0
2645025.0
2644917.0
2646051.0
2646997.0
2648654.0
2650677.0
2652660.0
2655144.0
2657791.0
2660613.0
2664697.0
2666322.0
2669195.0
2673101.0
2670744.0
2668095.0
2666426.0
2666148.0
2667564.0
2667079.0
2668639.0
2670034.0
2671109.0
2674223.0
2674608.0
2676763.0
2680485.0
2681447.0
2684431.0
2687298.0
2690095.0
2693962.0
2697746.0
2700435.0
2700303.0
2697149.0
2695628.0
2695373.0
2695580.0
2696497.0
2700311.0
2701450.0
2702637.0
2703851.0
2704553.0
2706578.0
2708690.0
2710698.0
2714836.0
2717457.0
2718752.0
2721256.0
2723670.0
2725647.0
2722061.0
2720631.0
2720214.0
2720654.0
2721535.0
2723182.0
2725144.0
2726019.0
2726976.0
2728908.0
2730694.0
2732661.0
2736595.0
2737468.0
2739525.0
2739499.0
2737747.0
2735953.0
2736068.0
2736337.0
2737809.0
2739468.0
2740506.0
2741347.0
2740748.0
2742061.0
2743689.0
2745413.0
2748699.0
2750811.0
2750630.0
2748486.0
2745462.0
2743916.0
2742884.0
2742637.0
2744181.0
2743501.0
2743572.0
2745374.0
2746192.0
2745363.0
2746628.0
2747788.0
2751279.0
2752215.0
2753977.0
2751144.0
2747315.0
2743624.0
2740638.0
2740677.0
2739773.0
2739265.0
2738461.0
2738592.0
2736865.0
2736813.0
2737088.0
2737506.0
2738351.0
2739948.0
2742096.0
2741672.0
2742926.0
2744055.0
2742059.0
2737578.0
2734069.0
2729427.0
2726711.0
2724738.0
2724257.0
2724801.0
2723820.0
2722641.0
2720543.0
2720503.0
2720746.0
2721141.0
2721701.0
2722506.0
2723734.0
2726387.0
2726404.0
2727701.0
2728918.0
2727628.0
2723740.0
2720212.0
2715904.0
2713290.0
2712028.0
2711094.0
2711114.0
2710496.0
2708747.0
2709497.0
2708337.0
2707929.0
2708699.0
2709809.0
2710746.0
2711813.0
2713087.0
2715842.0
2717225.0
2717668.0
2716749.0
2713399.0
2707915.0
2704626.0
2702247.0
2701538.0
2701403.0
2700455.0
2700763.0
2698639.0
2698124.0
2698590.0
2698482.0
2699667.0
2700277.0
2701348.0
2702504.0
2704926.0
2705210.0
2708260.0
2706938.0
2702429.0
2697642.0
2692587.0
2691242.0
2688302.0
2687741.0
2688300.0
2687352.0
2685260.0
2684607.0
2686116.0
2686229.0
2686704.0
2686439.0
2687358.0
2688429.0
2689744.0
2690914.0
2691656.0
2689435.0
2684426.0
2679588.0
2675635.0
2673310.0
2671482.0
2670641.0
2669896.0
2668721.0
2667952.0
2667664.0
2667597.0
2668252.0
2668834.0
2669957.0
2670909.0
2672364.0
2673879.0
2676838.0
2676486.0
2673685.0
2667862.0
2664525.0
2661641.0
2658685.0
2658786.0
2656409.0
2655930.0
2655784.0
2654432.0
2654416.0
2654986.0
2656616.0
2658320.0
2658512.0
2660812.0
2662037.0
2663652.0
2665014.0
2663501.0
2657406.0
2653218.0
2650259.0
2648396.0
2649064.0
2649046.0
2647649.0
2647857.0
2647453.0
2647583.0
2646316.0
2648392.0
2648292.0
2649497.0
2650691.0
2653722.0
2654229.0
2649522.0
2645054.0
2640716.0
2639038.0
2635155.0
2635155.0
2634855.0
2635850.0
2634923.0
2633672.0
2633672.0
2634368.0
2634706.0
2638741.0
2640282.0
2640359.0
2639105.0
2634670.0
2629550.0
2626973.0
2622501.0
2621682.0
2619325.0
2620362.0
2617907.0
2617082.0
2616532.0
2616731.0
2617330.0
2618151.0
2620201.0
2622159.0
2623582.0
2625281.0
2625843.0
2627378.0
2625707.0
2620604.0
2615827.0
2612225.0
2609681.0
2608351.0
2607906.0
2607953.0
2607300.0
2606872.0
2606948.0
2607656.0
2608744.0
2611033.0
2611545.0
2613437.0
2616610.0
2618609.0
2619676.0
2621658.0
2625294.0
2626527.0
2626889.0
2623523.0
2621070.0
2618468.0
2615016.0
2614343.0
2616160.0
2616873.0
2616805.0
2616508.0
2615945.0
2616931.0
2618047.0
2619796.0
2621706.0
2623789.0
2626010.0
2628300.0
2630610.0
2633077.0
2635581.0
2635477.0
2632787.0
2628950.0
2626814.0
2625744.0
2625505.0
2626004.0
2626717.0
2626977.0
2627688.0
2629681.0
2630712.0
2631858.0
2633871.0
2636337.0
2638151.0
2638789.0
2641329.0
2643641.0
2647995.0
2649935.0
2648020.0
2642708.0
2639690.0
2637565.0
2636225.0
2636245.0
2636829.0
2637027.0
2637607.0
2639278.0
2640033.0
2640219.0
2642642.0
2643237.0
2646675.0
2648749.0
2650747.0
2651266.0
2653670.0
2656309.0
2658013.0
2655954.0
2652209.0
2649458.0
2648934.0
2647577.0
2647619.0
2647653.0
2646308.0
2646587.0
2646666.0
2647545.0
2648766.0
2650165.0
2652190.0
2655247.0
2655534.0
2657338.0
2659928.0
2663717.0
2665912.0
2666240.0
2661890.0
2658154.0
2655539.0
2654004.0
2653172.0
2653398.0
2653825.0
2653755.0
2655497.0
2655589.0
2655435.0
2657576.0
2659137.0
2660884.0
2661486.0
2662491.0
2664870.0
2667030.0
2670306.0
2671902.0
2668441.0
2664778.0
2661950.0
2660270.0
2659909.0
2659344.0
2660038.0
2659976.0
2660146.0
2662159.0
2661058.0
2662236.0
2665685.0
2666675.0
2668658.0
2668757.0
2670433.0
2672101.0
2670381.0
2667441.0
2662838.0
2660520.0
2659930.0
2659842.0
2658031.0
2658202.0
2658325.0
2658478.0
2659027.0
2661303.0
2662619.0
2663918.0
2664957.0
2665566.0
2667935.0
2669502.0
2667610.0
2664717.0
2660781.0
2657941.0
2654565.0
2654945.0
2653689.0
2654988.0
2654084.0
2653665.0
2653877.0
2654820.0
2656967.0
2658289.0
2660087.0
2660107.0
2662526.0
2665474.0
2666635.0
2663787.0
2659935.0
2656492.0
2654077.0
2652675.0
2652258.0
2652364.0
2652551.0
2652963.0
2653019.0
2655077.0
2655236.0
2656614.0
2658450.0
2661639.0
2662468.0
2664556.0
2668062.0
2670534.0
2671975.0
2669195.0
2665858.0
2663287.0
2662099.0
2661314.0
2661824.0
2662995.0
2663623.0
2664021.0
2664765.0
2666077.0
2667964.0
2670813.0
2672139.0
2675129.0
2676325.0
2679150.0
2681231.0
2683960.0
2682050.0
2679286.0
2677142.0
2675948.0
2675275.0
2676200.0
2678722.0
2679245.0
2678213.0
2679186.0
2680758.0
2683798.0
2683580.0
2685512.0
2688162.0
2690056.0
2692558.0
2695413.0
2697268.0
2697128.0
2692854.0
2692467.0
2691218.0
2690105.0
2691382.0
2692697.0
2692153.0
2692660.0
2694704.0
2694630.0
2697910.0
2699695.0
2701878.0
2703923.0
2704644.0
2707404.0
2709380.0
2712238.0
2712826.0
2712142.0
2708829.0
2705995.0
2705989.0
2705852.0
2705039.0
2707145.0
2706859.0
2708364.0
2709594.0
2711862.0
2712314.0
2714908.0
2718943.0
2719840.0
2722437.0
2724936.0
2727660.0
2730029.0
2732530.0
2734359.0
2733210.0
2730624.0
2730919.0
2730531.0
2730766.0
2730591.0
2732131.0
2732277.0
2734099.0
2733473.0
2734662.0
2735732.0
2737092.0
2738857.0
2740584.0
2742289.0
2745916.0
2746463.0
2748369.0
2750752.0
2751165.0
2749208.0
2746424.0
2745040.0
2743718.0
2743631.0
2744134.0
2744878.0
2745071.0
2745795.0
2747666.0
2748366.0
2749082.0
2750866.0
2750909.0
2752748.0
2754509.0
2758019.0
2759693.0
2759274.0
2756436.0
2752087.0
2750162.0
2748437.0
2748167.0
2748045.0
2748310.0
2748146.0
2749226.0
2747761.0
2748223.0
2750581.0
2749956.0
2751315.0
2752827.0
2754235.0
2756768.0
2757157.0
2755455.0
2750324.0
2746395.0
2743525.0
2741323.0
2740330.0
2741781.0
2739779.0
2738740.0
2737953.0
2737547.0
2737783.0
2738169.0
2739152.0
2739764.0
2742663.0
2743905.0
2745288.0
2746845.0
2745839.0
2743162.0
2738570.0
2734544.0
2732637.0
2729172.0
2729617.0
2729153.0
2726829.0
2725322.0
2724482.0
2726104.0
2727095.0
2727218.0
2726596.0
2727181.0
2730072.0
2729513.0
2730131.0
2731376.0
2732983.0
2729715.0
2724524.0
2720439.0
2718277.0
2714552.0
2713348.0
2712493.0
2712285.0
2711761.0
2707038.0
2706865.0
2707993.0
2706534.0
2708226.0
2707767.0
2707940.0
2708686.0
2708751.0
2705692.0
2700330.0
2696485.0
2690935.0
2687672.0
2686583.0
2686164.0
2683492.0
2681723.0
2680329.0
2679395.0
2678882.0
2679541.0
2679374.0
2679481.0
2680373.0
2681031.0
2683301.0
2680520.0
2676069.0
2667995.0
2662736.0
2658725.0
2657253.0
2655407.0
2652250.0
2650421.0
2648593.0
2648720.0
2648127.0
2646229.0
2645994.0
2647425.0
2646615.0
2646918.0
2648018.0
2650111.0
2648331.0
2643303.0
2637721.0
2630622.0
2626328.0
2624177.0
2620960.0
2619892.0
2617931.0
2615766.0
2614453.0
2613503.0
2613328.0
2614983.0
2613948.0
2614560.0
2615202.0
2615950.0
2617605.0
2619358.0
2615841.0
2608285.0
2603474.0
2599635.0
2596651.0
2593855.0
2592790.0
2591469.0
2590288.0
2590446.0
2589728.0
2588431.0
2588627.0
2589392.0
2589997.0
2591010.0
2592192.0
2592528.0
2588263.0
2582304.0
2576734.0
2572401.0
2570057.0
2570622.0
2570021.0
2567572.0
2567219.0
2564761.0
2564754.0
2565215.0
2567484.0
2566675.0
2568173.0
2569230.0
2570856.0
2572691.0
2568641.0
2562727.0
2555803.0
2550933.0
2548608.0
2547915.0
2545452.0
2544570.0
2543368.0
2542377.0
2542594.0
2542836.0
2544821.0
2544360.0
2545516.0
2546947.0
2548541.0
2550433.0
2551649.0
2548535.0
2542168.0
2536141.0
2531751.0
2528623.0
2527686.0
2528529.0
2526753.0
2525685.0
2526407.0
2525130.0
2525872.0
2526716.0
2528123.0
2529929.0
2531664.0
2533686.0
2535927.0
2538216.0
2539979.0
2537277.0
2531547.0
2526258.0
2523436.0
2522161.0
2521552.0
2520281.0
2520911.0
2520379.0
2518672.0
2518894.0
2519767.0
2521261.0
2522893.0
2525106.0
2526951.0
2529085.0
2531248.0
2533638.0
2532033.0
2527348.0
2523412.0
2518530.0
2516432.0
2516276.0
2516371.0
2516240.0
2515769.0
2515451.0
2515675.0
2516644.0
2517764.0
2519449.0
2521142.0
2523140.0
2525472.0
2527528.0
2526094.0
2520885.0
2517295.0
2513606.0
2510009.0
2508844.0
2509045.0
2509033.0
2508855.0
2508213.0
2508571.0
2509635.0
2510912.0
2512565.0
2514184.0
2516143.0
2518423.0
2521157.0
2522859.0
2518720.0
2512524.0
2507565.0
2504505.0
2502454.0
2502060.0
2502325.0
2502057.0
2501462.0
2503361.0
2504216.0
2503446.0
2506808.0
2507698.0
2509744.0
2512057.0
2514683.0
2517213.0
2519934.0
2523022.0
2518492.0
2512709.0
2508368.0
2505435.0
2503700.0
2503499.0
2505334.0
2504365.0
2505473.0
2506698.0
2507863.0
2509493.0
2510389.0
2512714.0
2515347.0
2518025.0
2521020.0
2523766.0
2527318.0
2530548.0
2534102.0
2531598.0
2527004.0
2523713.0
2521923.0
2520110.0
2520929.0
2523414.0
2523024.0
2524621.0
2524896.0
2526744.0
2529551.0
2532782.0
2533879.0
2536580.0
2539298.0
2542195.0
2545521.0
2549081.0
2550627.0
2548626.0
2544998.0
2542150.0
2542477.0
2541031.0
2544235.0
2545408.0
2545171.0
2545834.0
2547026.0
2548848.0
2550897.0
2553468.0
2556487.0
2560643.0
2560587.0
2563568.0
2568081.0
2567729.0
2562656.0
2558932.0
2556712.0
2557088.0
2557287.0
2556420.0
2557616.0
2558511.0
2559401.0
2561551.0
2564195.0
2565422.0
2569178.0
2571837.0
2573935.0
2577954.0
2580063.0
2581926.0
2581717.0
2577848.0
2573833.0
2571187.0
2569797.0
2569607.0
2570929.0
2572825.0
2573344.0
2572749.0
2574612.0
2576065.0
2577823.0
2579069.0
2581627.0
2583791.0
2586339.0
2589034.0
2591747.0
2594616.0
2592802.0
2588549.0
2585218.0
2583189.0
2582081.0
2582378.0
2583461.0
2584029.0
2585657.0
2584762.0
2585683.0
2587486.0
2589114.0
2591447.0
2593756.0
2596182.0
2598555.0
2600943.0
2605471.0
2606304.0
2605026.0
2601271.0
2597798.0
2595541.0
2594989.0
2596632.0
2596563.0
2596693.0
2596877.0
2597278.0
2598742.0
2600208.0
2601965.0
2605661.0
2607385.0
2608097.0
2610519.0
2612903.0
2612638.0
2606880.0
2602707.0
2600278.0
2598650.0
2600251.0
2600535.0
2600663.0
2600534.0
2598918.0
2601326.0
2601674.0
2602303.0
2605859.0
2607533.0
2607844.0
2610188.0
2611180.0
2607899.0
2602694.0
2598460.0
2595357.0
2593110.0
2592706.0
2592635.0
2592412.0
2593300.0
2593167.0
2592587.0
2592616.0
2593905.0
2595514.0
2597100.0
2598596.0
2600892.0
2603326.0
2603906.0
2600513.0
2596232.0
2591166.0
2586175.0
2583738.0
2582840.0
2582567.0
2581977.0
2581190.0
2580601.0
2582113.0
2581924.0
2582938.0
2584603.0
2586199.0
2589002.0
2589752.0
2591880.0
2593735.0
2591952.0
2586748.0
2582250.0
2579279.0
2576405.0
2574762.0
2574775.0
2574513.0
2574762.0
2573268.0
2574016.0
2574387.0
2575590.0
2577093.0
2578794.0
2580599.0
2582475.0
2584540.0
2585316.0
2582266.0
2576747.0
2571743.0
2569246.0
2567700.0
2567776.0
2567835.0
2567393.0
2566563.0
2566438.0
2566912.0
2567863.0
2569139.0
2570565.0
2571883.0
2573721.0
2575192.0
2574056.0
2568314.0
2563228.0
2557771.0
2555255.0
2554218.0
2554119.0
2553415.0
2552472.0
2551729.0
2551942.0
2552588.0
2553533.0
2554667.0
2556201.0
2557876.0
2559914.0
2559867.0
2555066.0
2548317.0
2543346.0
2539384.0
2536794.0
2535800.0
2536407.0
2534157.0
2533188.0
2532872.0
2533276.0
2533874.0
2535268.0
2536810.0
2538337.0
2540208.0
2542261.0
2545739.0
2546483.0
2542672.0
2535728.0
2532171.0
2527233.0
2525488.0
2525085.0
2525235.0
2526474.0
2526166.0
2526728.0
2527533.0
2527454.0
2529306.0
2531062.0
2533765.0
2537686.0
2540336.0
2541941.0
2544709.0
2543881.0
2541077.0
2535708.0
2533355.0
2532024.0
2533808.0
2533812.0
2535981.0
2535373.0
2536054.0
2537357.0
2539167.0
2542414.0
2543987.0
2548610.0
2551425.0
2552835.0
2556274.0
2559248.0
2559048.0
2556777.0
2554513.0
2552535.0
2551218.0
2553359.0
2554165.0
2555774.0
2556860.0
2558059.0
2560172.0
2563153.0
2565400.0
2568283.0
2571353.0
2574454.0
2579578.0
2581311.0
2581137.0
2578708.0
2575923.0
2575195.0
2576144.0
2575818.0
2577499.0
2580899.0
2581045.0
2582410.0
2584595.0
2587263.0
2590153.0
2593298.0
2596374.0
2601015.0
2603391.0
2606704.0
2611870.0
2611788.0
2609620.0
2607766.0
2607516.0
2606853.0
2606710.0
2608220.0
2609904.0
2612958.0
2613226.0
2616465.0
2617852.0
2620158.0
2624819.0
2628150.0
2629830.0
2634680.0
2636930.0
2640361.0
2645123.0
2649035.0
2648199.0
2646280.0
2646143.0
2646104.0
2646248.0
2646155.0
2648038.0
2650105.0
2651406.0
2653194.0
2655452.0
2659040.0
2661973.0
2663516.0
2666587.0
2669404.0
2673881.0
2677479.0
2680711.0
2682824.0
2685371.0
2685515.0
2682687.0
2681774.0
2682361.0
2684213.0
2684499.0
2686502.0
2687933.0
2690507.0
2690815.0
2693995.0
2697198.0
2698667.0
2701279.0
2703886.0
2706527.0
2709681.0
2712407.0
2715541.0
2717997.0
2718731.0
2714954.0
2712852.0
2712268.0
2713060.0
2714605.0
2716074.0
2717297.0
2716818.0
2717637.0
2718883.0
2721931.0
2724019.0
2724759.0
2726858.0
2730505.0
2731480.0
2733833.0
2736414.0
2739352.0
2738204.0
2735091.0
2732667.0
2729511.0
2728761.0
2729015.0
2731582.0
2730654.0
2731118.0
2732063.0
2732511.0
2734614.0
2735788.0
2737008.0
2738759.0
2741902.0
2744180.0
2745020.0
2746836.0
2748532.0
2746626.0
2744507.0
2740198.0
2738235.0
2737644.0
2738948.0
2739467.0
2739706.0
2739296.0
2737640.0
2739605.0
2739285.0
2741636.0
2741387.0
2742811.0
2744254.0
2745607.0
2747637.0
2749324.0
2744977.0
2740727.0
2737470.0
2736707.0
2736154.0
2734218.0
2734726.0
2734080.0
2733628.0
2733714.0
2733831.0
2734076.0
2735050.0
2736237.0
2737252.0
2738549.0
2739966.0
2739040.0
2734648.0
2729706.0
2725617.0
2724192.0
2722819.0
2720682.0
2721957.0
2719954.0
2719697.0
2719160.0
2717909.0
2718023.0
2718652.0
2719252.0
2720234.0
2721306.0
2723171.0
2722013.0
2717425.0
2711535.0
2706397.0
2702828.0
2700412.0
2698954.0
2698219.0
2696596.0
2695274.0
2694359.0
2693814.0
2693874.0
2694303.0
2696431.0
2695935.0
2696677.0
2697800.0
2700542.0
2699388.0
2695417.0
2690625.0
2685477.0
2682118.0
2678437.0
2677337.0
2676365.0
2675338.0
2674475.0
2673230.0
2673281.0
2673164.0
2675362.0
2674897.0
2675941.0
2676878.0
2678126.0
2680891.0
2682516.0
2680941.0
2674341.0
2669294.0
2665806.0
2665046.0
2664130.0
2662793.0
2662183.0
2660919.0
2660463.0
2660104.0
2660604.0
2662676.0
2663877.0
2665167.0
2666229.0
2666463.0
2666759.0
2662977.0
2657891.0
2653593.0
2650646.0
2649052.0
2649094.0
2648702.0
2649910.0
2647420.0
2647741.0
2647748.0
2648259.0
2649432.0
2650810.0
2652627.0
2653833.0
2657108.0
2656020.0
2652106.0
2646524.0
2643198.0
2640110.0
2638121.0
2636110.0
2635827.0
2635306.0
2634656.0
2634369.0
2636193.0
2637381.0
2637837.0
2639497.0
2639780.0
2642647.0
2644835.0
2645649.0
2645842.0
2641379.0
2637007.0
2634157.0
2630049.0
2628704.0
2629332.0
2629673.0
2628891.0
2628572.0
2630175.0
2629654.0
2630985.0
2633573.0
2634231.0
2636131.0
2639669.0
2640594.0
2642652.0
2646175.0
2644123.0
2638282.0
2634004.0
2631993.0
2630869.0
2631644.0
2632291.0
2633671.0
2632425.0
2632898.0
2633997.0
2635128.0
2636409.0
2639884.0
2641910.0
2642490.0
2644869.0
2646891.0
2645667.0
2643608.0
2639874.0
2637474.0
2634871.0
2635165.0
2635942.0
2636346.0
2638055.0
2637611.0
2638525.0
2639364.0
2641130.0
2643182.0
2645102.0
2647258.0
2649278.0
2650783.0
2649292.0
2645561.0
2640635.0
2637849.0
2636220.0
2636439.0
2636787.0
2637192.0
2638426.0
2639139.0
2638533.0
2639614.0
2641061.0
2643068.0
2645056.0
2647111.0
2650091.0
2651992.0
2652700.0
2650083.0
2646524.0
2642981.0
2639412.0
2638449.0
2638463.0
2639011.0
2639375.0
2639780.0
2640399.0
2641472.0
2644472.0
2645751.0
2646838.0
2649235.0
2652969.0
2655470.0
2658115.0
2659190.0
2661295.0
2659860.0
2655758.0
2652255.0
2650582.0
2650041.0
2652030.0
2651575.0
2653775.0
2654152.0
2653194.0
2654217.0
2655958.0
2658402.0
2661360.0
2663560.0
2664544.0
2668101.0
2669230.0
2671781.0
2671727.0
2668373.0
2664883.0
2662743.0
2662091.0
2662356.0
2663774.0
2664554.0
2666478.0
2667385.0
2668276.0
2668640.0
2670132.0
2672533.0
2674901.0
2677170.0
2680756.0
2681890.0
2685575.0
2684588.0
2680464.0
2676738.0
2676022.0
2673563.0
2673707.0
2674655.0
2675419.0
2675419.0
2675420.0
2676509.0
2677392.0
2680939.0
2680939.0
2684783.0
2685367.0
2687528.0
2693253.0
2692906.0
2689719.0
2682627.0
2679792.0
2677848.0
2677535.0
2679656.0
2678598.0
2680273.0
2679080.0
2679368.0
2680357.0
2681464.0
2683295.0
2685196.0
2687292.0
2690383.0
2690519.0
2692743.0
2696692.0
2697296.0
2692323.0
2687805.0
2685053.0
2683270.0
2683081.0
2683217.0
2683796.0
2683539.0
2683493.0
2683589.0
2684442.0
2685580.0
2687265.0
2688968.0
2691741.0
2692351.0
2694246.0
2696275.0
2697485.0
2694999.0
2690394.0
2686413.0
2684159.0
2683763.0
2684748.0
2683644.0
2682878.0
2682798.0
2682462.0
2682843.0
2683861.0
2684790.0
2687555.0
2688201.0
2689499.0
2690951.0
2692954.0
2693112.0
2689318.0
2684313.0
2681519.0
2676653.0
2676366.0
2675249.0
2675707.0
2674943.0
2672474.0
2672142.0
2672310.0
2673148.0
2673857.0
2676608.0
2677863.0
2679415.0
2680952.0
2682585.0
2682542.0
2677277.0
2671926.0
2669011.0
2664453.0
2662345.0
2661909.0
2661827.0
2661006.0
2660580.0
2660325.0
2661034.0
2661064.0
2663820.0
2665054.0
2666758.0
2668394.0
2669843.0
2670528.0
2672416.0
2673443.0
2670193.0
2666150.0
2663293.0
2660763.0
2659436.0
2659204.0
2659256.0
2657484.0
2657243.0
2657683.0
2658271.0
2659534.0
2660702.0
2662792.0
2664351.0
2666074.0
2668309.0
2670411.0
2674306.0
2674453.0
2671722.0
2667782.0
2664911.0
2663288.0
2661386.0
2662047.0
2662920.0
2662918.0
2663329.0
2663909.0
2665193.0
2667849.0
2668682.0
2672025.0
2672854.0
2674903.0
2677175.0
2679242.0
2678834.0
2675856.0
2672199.0
2668618.0
2667566.0
2669305.0
2668586.0
2668983.0
2670206.0
2669810.0
2670814.0
2672382.0
2675808.0
2677593.0
2678540.0
2680971.0
2684773.0
2687456.0
2688334.0
2686611.0
2682694.0
2679524.0
2677395.0
2676323.0
2676531.0
2678233.0
2678462.0
2679221.0
2678682.0
2681242.0
2682676.0
2684195.0
2684880.0
2686920.0
2689217.0
2691806.0
2694063.0
2697087.0
2698867.0
2696934.0
2693375.0
2691634.0
2690096.0
2689207.0
2688156.0
2689139.0
2689571.0
2690002.0
2690516.0
2691470.0
2692956.0
2694890.0
2696898.0
2698899.0
2701192.0
2704082.0
2706985.0
2710049.0
2711104.0
2709286.0
