,value,experiments
0,-0.0,
1,-0.0,
2,-0.0,
3,-0.0,
4,-0.0,
5,-0.0,
6,-0.0,
7,-0.0,
8,-0.0,
9,-0.0,
10,0.0,
11,0.01,
12,0.01,
13,-0.0,
14,-0.03,
15,-0.05,
16,-0.05,
17,0.0,
18,0.13,
19,0.36,
20,0.66,
21,1.01,
22,1.37,
23,1.72,
24,2.06,
25,2.4,
26,2.79,
27,3.24,
28,3.8,
29,4.43,
30,5.09,
31,5.71,
32,6.28,
33,6.81,
34,7.36,
35,8.0,
36,8.78,
37,9.81,
38,11.0,
39,12.25,
40,13.43,
41,14.49,
42,15.48,
43,16.57,
44,17.96,
45,19.8,
46,22.31,
47,25.31,
48,28.52,
49,31.64,
50,34.52,
51,37.24,
52,40.11,
53,43.6,
54,48.0,
55,53.73,
56,60.43,
57,67.59,
58,74.63,
59,81.2,
60,87.38,
61,93.7,
62,100.86,
63,109.42,
64,119.93,
65,131.9,
66,144.53,
67,156.93,
68,168.55,
69,179.44,
70,190.27,
71,202.41,
72,214.59,
73,229.09,
74,246.52,
75,266.99,
76,289.26,
77,310.43,
78,326.18,
79,331.92,
80,324.32,
81,302.52,
82,268.94,
83,227.41,
84,182.25,
85,136.65,
86,92.12,
87,48.9,
88,6.84,
89,-33.83,
90,-72.38,
91,-107.6,
92,-138.88,
93,-166.02,
94,-189.39,
95,-209.27,
96,-225.58,
97,-237.86,
98,-245.45,
99,-248.05,
100,-245.72,
101,-239.37,
102,-230.26,
103,-219.74,
104,-208.85,
105,-198.09,
106,-187.53,
107,-176.52,
108,-164.59,
109,-151.49,
110,-137.52,
111,-123.27,
112,-109.46,
113,-96.67,
114,-85.25,
115,-75.24,
116,-66.49,
117,-58.93,
118,-52.49,
119,-47.24,
120,-43.31,
121,-40.81,
122,-39.71,
123,-39.83,
124,-40.84,
125,-42.33,
126,-43.98,
127,-45.48,
128,-46.65,
129,-47.34,
130,-47.49,
131,-47.0,
132,-45.79,
133,-43.82,
134,-41.04,
135,-37.48,
136,-33.18,
137,-28.25,
138,-22.8,
139,-16.95,
140,-10.84,
141,-4.58,
142,1.69,
143,7.83,
144,13.65,
145,18.97,
146,23.58,
147,27.28,
148,29.92,
149,31.35,
150,31.49,
151,30.29,
152,27.78,
153,24.06,
154,19.26,
155,13.57,
156,7.24,
157,0.54,
158,-6.25,
159,-12.8,
160,-18.8,
161,-23.89,
162,-27.79,
163,-30.24,
164,-31.02,
165,-30.03,
166,-27.24,
167,-22.8,
168,-16.93,
169,-10.0,
170,-2.47,
171,5.13,
172,12.29,
173,18.5,
174,23.35,
175,26.55,
176,27.88,
177,27.33,
178,24.96,
179,20.97,
180,15.59,
181,9.13,
182,1.94,
183,-5.68,
184,-13.41,
185,-21.04,
186,-28.3,
187,-35.04,
188,-41.1,
189,-46.36,
190,-50.73,
191,-54.09,
192,-56.41,
193,-57.57,
194,-57.5,
195,-56.07,
196,-53.21,
197,-48.86,
198,-42.99,
199,-35.65,
200,-26.93,
201,-17.06,
202,-6.34,
203,4.82,
204,15.94,
205,26.5,
206,35.97,
207,43.9,
208,49.92,
209,53.76,
210,55.3,
211,54.56,
212,51.69,
213,46.95,
214,40.68,
215,33.27,
216,25.16,
217,16.77,
218,8.52,
219,0.75,
220,-6.14,
221,-11.86,
222,-16.17,
223,-18.85,
224,-19.78,
225,-18.93,
226,-16.41,
227,-12.41,
228,-7.22,
229,-1.2,
230,5.26,
231,11.77,
232,17.98,
233,23.57,
234,28.25,
235,31.81,
236,34.09,
237,34.99,
238,34.49,
239,32.65,
240,29.59,
241,25.54,
242,20.66,
243,15.11,
244,8.92,
245,2.14,
246,-5.26,
247,-13.25,
248,-21.73,
249,-30.48,
250,-39.13,
251,-47.39,
252,-54.91,
253,-61.49,
254,-66.94,
255,-71.16,
256,-74.0,
257,-75.15,
258,-74.25,
259,-70.9,
260,-64.98,
261,-56.7,
262,-46.81,
263,-36.34,
264,-26.53,
265,-18.44,
266,-12.65,
267,-9.33,
268,-8.18,
269,-8.94,
270,-11.43,
271,-15.98,
272,-23.05,
273,-33.14,
274,-46.3,
275,-61.86,
276,-78.99,
277,-96.46,
278,-113.74,
279,-130.36,
280,-146.44,
281,-161.77,
282,-176.44,
283,-190.6,
284,-204.68,
285,-219.47,
286,-234.57,
287,-248.56,
288,-258.19,
289,-260.06,
290,-251.46,
291,-232.21,
292,-204.95,
293,-174.08,
294,-144.71,
295,-120.2,
296,-102.08,
297,-89.47,
298,-80.82,
299,-74.27,
300,-68.24,
301,-61.54,
302,-52.32,
303,-39.18,
304,-20.57,
305,3.49,
306,31.97,
307,62.35,
308,91.35,
309,116.0,
310,133.55,
311,143.26,
312,145.3,
313,141.88,
314,135.49,
315,129.26,
316,125.36,
317,124.26,
318,125.04,
319,124.79,
320,121.02,
321,111.55,
322,96.5,
323,76.84,
324,54.6,
325,31.99,
326,10.8,
327,-6.68,
328,-19.09,
329,-24.98,
330,-24.8,
331,-19.65,
332,-11.98,
333,-4.44,
334,1.1,
335,3.28,
336,2.77,
337,0.44,
338,-1.53,
339,-1.58,
340,2.2,
341,10.81,
342,23.9,
343,39.89,
344,55.14,
345,66.28,
346,70.15,
347,66.39,
348,56.12,
349,42.29,
350,28.1,
351,16.02,
352,8.02,
353,4.17,
354,4.13,
355,5.77,
356,6.86,
357,4.52,
358,-3.11,
359,-15.8,
360,-31.27,
361,-44.76,
362,-52.07,
363,-50.19,
364,-39.94,
365,-24.23,
366,-7.42,
367,6.93,
368,17.37,
369,23.76,
370,27.66,
371,29.73,
372,30.8,
373,30.47,
374,28.75,
375,26.1,
376,23.05,
377,20.41,
378,17.61,
379,14.03,
380,8.24,
381,0.34,
382,-8.64,
383,-16.68,
384,-22.16,
385,-25.68,
386,-29.54,
387,-37.42,
388,-50.69,
389,-67.87,
390,-83.57,
391,-91.98,
392,-90.25,
393,-80.64,
394,-70.73,
395,-68.46,
396,-78.67,
397,-98.72,
398,-120.57,
399,-133.53,
400,-130.54,
401,-111.4,
402,-82.21,
403,-52.73,
404,-30.1,
405,-16.81,
406,-9.19,
407,-1.2,
408,12.44,
409,32.87,
410,56.63,
411,78.33,
412,92.53,
413,97.54,
414,94.82,
415,88.67,
416,83.16,
417,80.7,
418,81.2,
419,82.26,
420,81.82,
421,78.26,
422,72.67,
423,67.21,
424,65.18,
425,68.81,
426,78.19,
427,91.22,
428,103.84,
429,112.71,
430,115.48,
431,112.74,
432,106.08,
433,97.65,
434,88.77,
435,79.91,
436,72.4,
437,67.99,
438,69.66,
439,78.37,
440,92.7,
441,107.43,
442,116.2,
443,115.02,
444,104.38,
445,89.9,
446,78.33,
447,74.94,
448,79.78,
449,89.22,
450,97.67,
451,100.52,
452,95.53,
453,81.55,
454,58.72,
455,27.03,
456,-11.29,
457,-51.96,
458,-87.88,
459,-112.19,
460,-121.03,
461,-115.29,
462,-101.09,
463,-85.65,
464,-75.13,
465,-71.15,
466,-72.0,
467,-73.99,
468,-73.86,
469,-70.55,
470,-64.36,
471,-57.04,
472,-49.17,
473,-40.75,
474,-30.81,
475,-18.95,
476,-5.94,
477,5.71,
478,11.83,
479,9.25,
480,-3.6,
481,-24.16,
482,-47.49,
483,-67.31,
484,-79.7,
485,-84.82,
486,-86.12,
487,-88.58,
488,-94.11,
489,-101.14,
490,-104.26,
491,-98.59,
492,-81.89,
493,-56.25,
494,-26.8,
495,1.7,
496,25.98,
497,46.15,
498,63.07,
499,77.67,
500,88.98,
501,95.25,
502,95.02,
503,88.07,
504,76.4,
505,62.48,
506,48.99,
507,36.97,
508,26.83,
509,17.99,
510,9.9,
511,2.39,
512,-4.85,
513,-11.21,
514,-16.46,
515,-19.1,
516,-17.94,
517,-11.48,
518,0.43,
519,15.97,
520,31.98,
521,44.24,
522,50.52,
523,50.4,
524,46.54,
525,41.96,
526,39.46,
527,40.19,
528,43.64,
529,49.3,
530,56.07,
531,63.75,
532,71.13,
533,76.91,
534,78.8,
535,74.96,
536,65.01,
537,49.88,
538,32.48,
539,15.33,
540,1.11,
541,-9.01,
542,-13.99,
543,-13.62,
544,-8.52,
545,-0.19,
546,8.15,
547,13.71,
548,14.19,
549,10.16,
550,3.66,
551,-2.24,
552,-5.41,
553,-5.51,
554,-2.74,
555,2.15,
556,9.98,
557,21.26,
558,36.32,
559,53.17,
560,68.54,
561,79.48,
562,84.79,
563,86.43,
564,86.94,
565,88.45,
566,89.61,
567,87.37,
568,78.54,
569,62.74,
570,43.92,
571,28.03,
572,20.88,
573,23.44,
574,32.07,
575,39.03,
576,37.51,
577,24.84,
578,4.32,
579,-16.0,
580,-28.49,
581,-28.86,
582,-19.51,
583,-7.01,
584,0.44,
585,-2.11,
586,-14.53,
587,-32.54,
588,-49.72,
589,-62.14,
590,-68.84,
591,-72.71,
592,-77.39,
593,-85.79,
594,-98.0,
595,-111.29,
596,-121.95,
597,-125.85,
598,-121.41,
599,-108.78,
600,-90.6,
601,-69.8,
602,-48.9,
603,-29.37,
604,-11.47,
605,4.21,
606,17.49,
607,27.24,
608,33.6,
609,37.14,
610,39.85,
611,43.84,
612,49.76,
613,56.75,
614,61.63,
615,61.69,
616,55.17,
617,43.4,
618,29.23,
619,15.86,
620,5.39,
621,-2.22,
622,-7.48,
623,-11.43,
624,-13.5,
625,-13.02,
626,-8.52,
627,0.71,
628,14.74,
629,33.6,
630,56.29,
631,81.9,
632,107.56,
633,129.67,
634,143.34,
635,145.26,
636,134.56,
637,113.58,
638,87.52,
639,61.15,
640,38.12,
641,18.67,
642,1.59,
643,-15.57,
644,-34.04,
645,-53.4,
646,-71.94,
647,-86.8,
648,-96.38,
649,-100.06,
650,-99.42,
651,-96.64,
652,-94.3,
653,-93.65,
654,-94.1,
655,-93.94,
656,-90.15,
657,-81.12,
658,-66.12,
659,-46.89,
660,-25.72,
661,-5.05,
662,13.24,
663,28.24,
664,38.53,
665,43.12,
666,40.31,
667,29.85,
668,12.27,
669,-10.02,
670,-33.46,
671,-54.6,
672,-70.21,
673,-79.38,
674,-82.25,
675,-81.11,
676,-78.28,
677,-76.56,
678,-77.6,
679,-81.36,
680,-86.66,
681,-90.38,
682,-89.97,
683,-83.08,
684,-69.71,
685,-50.71,
686,-28.15,
687,-4.47,
688,18.19,
689,37.18,
690,50.94,
691,58.03,
692,59.04,
693,55.19,
694,49.04,
695,43.04,
696,38.73,
697,36.9,
698,36.42,
699,36.14,
700,34.09,
701,29.38,
702,21.08,
703,9.24,
704,-5.11,
705,-20.28,
706,-33.01,
707,-40.65,
708,-40.7,
709,-33.2,
710,-19.37,
711,-1.95,
712,16.03,
713,32.21,
714,44.33,
715,51.68,
716,53.74,
717,51.7,
718,47.04,
719,42.32,
720,39.7,
721,40.08,
722,43.08,
723,46.05,
724,46.37,
725,41.33,
726,30.46,
727,14.21,
728,-5.56,
729,-26.37,
730,-45.92,
731,-61.26,
732,-70.54,
733,-72.14,
734,-66.66,
735,-55.57,
736,-41.73,
737,-28.12,
738,-16.86,
739,-9.51,
740,-5.68,
741,-4.77,
742,-4.78,
743,-4.19,
744,-0.98,
745,6.07,
746,16.72,
747,29.55,
748,41.0,
749,47.87,
750,47.25,
751,39.04,
752,24.46,
753,6.27,
754,-12.6,
755,-29.99,
756,-43.77,
757,-53.15,
758,-57.36,
759,-57.21,
760,-53.88,
761,-49.7,
762,-46.93,
763,-46.83,
764,-49.79,
765,-53.97,
766,-57.41,
767,-57.41,
768,-52.77,
769,-42.73,
770,-27.81,
771,-9.65,
772,9.58,
773,26.41,
774,38.18,
775,42.6,
776,39.92,
777,31.55,
778,20.29,
779,8.98,
780,-0.57,
781,-6.98,
782,-10.6,
783,-11.7,
784,-11.7,
785,-11.57,
786,-12.81,
787,-16.4,
788,-22.31,
789,-29.78,
790,-36.16,
791,-39.14,
792,-36.23,
793,-27.08,
794,-12.2,
795,6.48,
796,26.39,
797,45.15,
798,59.89,
799,69.08,
800,71.42,
801,67.72,
802,59.43,
803,49.17,
804,39.43,
805,31.67,
806,26.75,
807,23.58,
808,21.16,
809,17.61,
810,12.1,
811,3.81,
812,-7.27,
813,-20.21,
814,-33.66,
815,-44.8,
816,-51.44,
817,-51.3,
818,-44.33,
819,-31.29,
820,-14.38,
821,3.78,
822,20.94,
823,34.65,
824,43.94,
825,48.01,
826,47.91,
827,44.96,
828,41.44,
829,39.26,
830,39.17,
831,41.07,
832,42.97,
833,43.06,
834,39.23,
835,31.04,
836,18.54,
837,2.85,
838,-14.14,
839,-30.45,
840,-43.18,
841,-50.39,
842,-50.32,
843,-43.44,
844,-31.01,
845,-15.51,
846,0.39,
847,14.68,
848,25.36,
849,31.98,
850,34.15,
851,33.08,
852,30.02,
853,27.13,
854,26.12,
855,27.53,
856,30.93,
857,33.89,
858,34.23,
859,29.62,
860,19.75,
861,5.08,
862,-12.68,
863,-31.19,
864,-48.27,
865,-61.06,
866,-67.89,
867,-67.32,
868,-60.08,
869,-47.62,
870,-32.55,
871,-17.57,
872,-4.54,
873,4.91,
874,10.84,
875,13.38,
876,14.0,
877,13.94,
878,15.1,
879,18.75,
880,24.97,
881,32.86,
882,39.5,
883,42.36,
884,38.96,
885,29.18,
886,13.97,
887,-4.35,
888,-23.05,
889,-39.85,
890,-52.21,
891,-58.89,
892,-58.81,
893,-52.9,
894,-42.58,
895,-30.46,
896,-19.14,
897,-10.3,
898,-5.14,
899,-2.91,
900,-2.79,
901,-2.79,
902,-1.66,
903,2.15,
904,9.34,
905,19.4,
906,30.94,
907,40.74,
908,46.07,
909,44.42,
910,35.79,
911,21.3,
912,3.46,
913,-14.92,
914,-31.65,
915,-44.39,
916,-52.19,
917,-54.18,
918,-51.26,
919,-44.75,
920,-37.08,
921,-30.64,
922,-26.89,
923,-26.67,
924,-28.76,
925,-31.82,
926,-33.44,
927,-32.12,
928,-26.26,
929,-15.29,
930,-0.01,
931,17.81,
932,34.54,
933,47.1,
934,52.73,
935,51.34,
936,44.1,
937,33.49,
938,22.17,
939,11.89,
940,4.5,
941,0.48,
942,0.54,
943,3.89,
944,9.65,
945,15.85,
946,20.47,
947,22.24,
948,20.37,
949,16.03,
950,10.54,
951,6.34,
952,4.97,
953,8.06,
954,16.04,
955,27.9,
956,41.54,
957,52.99,
958,59.01,
959,56.91,
960,46.96,
961,30.86,
962,11.72,
963,-7.34,
964,-24.24,
965,-37.1,
966,-45.57,
967,-49.13,
968,-48.75,
969,-45.52,
970,-41.61,
971,-39.1,
972,-39.13,
973,-42.0,
974,-45.8,
975,-48.59,
976,-47.74,
977,-42.26,
978,-31.63,
979,-16.63,
980,0.95,
981,18.96,
982,34.05,
983,43.82,
984,46.08,
985,41.17,
986,30.35,
987,16.23,
988,1.6,
989,-11.49,
990,-21.03,
991,-26.53,
992,-27.52,
993,-25.15,
994,-20.64,
995,-16.22,
996,-13.81,
997,-14.36,
998,-18.02,
999,-22.95,
1000,-27.32,
1001,-28.63,
1002,-25.81,
1003,-18.04,
1004,-5.66,
1005,9.91,
1006,26.68,
1007,41.2,
1008,50.82,
1009,53.13,
1010,48.28,
1011,37.52,
1012,23.44,
1013,8.84,
1014,-4.28,
1015,-13.94,
1016,-19.67,
1017,-20.98,
1018,-18.92,
1019,-14.71,
1020,-10.57,
1021,-8.48,
1022,-9.38,
1023,-13.35,
1024,-18.37,
1025,-22.43,
1026,-22.98,
1027,-19.06,
1028,-10.14,
1029,3.09,
1030,18.93,
1031,35.35,
1032,49.02,
1033,57.53,
1034,58.66,
1035,52.67,
1036,40.78,
1037,25.58,
1038,9.85,
1039,-4.34,
1040,-14.91,
1041,-21.28,
1042,-22.94,
1043,-20.97,
1044,-16.64,
1045,-12.2,
1046,-9.66,
1047,-10.01,
1048,-13.49,
1049,-18.29,
1050,-22.61,
1051,-23.99,
1052,-21.35,
1053,-13.85,
1054,-1.84,
1055,13.28,
1056,29.53,
1057,43.49,
1058,52.5,
1059,54.18,
1060,48.72,
1061,37.34,
1062,22.64,
1063,7.39,
1064,-6.4,
1065,-16.73,
1066,-23.03,
1067,-24.71,
1068,-22.76,
1069,-18.32,
1070,-13.57,
1071,-10.55,
1072,-10.37,
1073,-13.41,
1074,-18.0,
1075,-22.44,
1076,-24.23,
1077,-22.16,
1078,-15.24,
1079,-3.64,
1080,11.27,
1081,27.47,
1082,41.38,
1083,50.23,
1084,51.55,
1085,45.53,
1086,33.51,
1087,18.2,
1088,2.45,
1089,-11.7,
1090,-22.29,
1091,-28.8,
1092,-30.7,
1093,-29.01,
1094,-24.88,
1095,-20.57,
1096,-18.15,
1097,-18.66,
1098,-22.31,
1099,-27.11,
1100,-31.06,
1101,-31.52,
1102,-27.45,
1103,-18.22,
1104,-4.5,
1105,12.0,
1106,29.14,
1107,43.51,
1108,52.63,
1109,54.27,
1110,48.77,
1111,37.51,
1112,23.23,
1113,8.77,
1114,-3.95,
1115,-13.25,
1116,-19.1,
1117,-21.41,
1118,-21.44,
1119,-20.19,
1120,-19.38,
1121,-20.36,
1122,-23.53,
1123,-28.64,
1124,-33.53,
1125,-36.28,
1126,-34.51,
1127,-27.6,
1128,-15.45,
1129,0.75,
1130,18.92,
1131,36.8,
1132,51.18,
1133,59.9,
1134,61.11,
1135,55.37,
1136,44.13,
1137,30.12,
1138,16.1,
1139,3.94,
1140,-4.82,
1141,-10.31,
1142,-12.66,
1143,-13.21,
1144,-12.97,
1145,-13.51,
1146,-15.95,
1147,-20.47,
1148,-26.61,
1149,-32.15,
1150,-35.16,
1151,-33.31,
1152,-26.11,
1153,-13.61,
1154,2.83,
1155,21.08,
1156,38.87,
1157,53.07,
1158,61.7,
1159,63.03,
1160,57.7,
1161,47.17,
1162,34.2,
1163,21.5,
1164,10.87,
1165,3.58,
1166,-0.88,
1167,-2.98,
1168,-4.33,
1169,-5.88,
1170,-8.96,
1171,-14.28,
1172,-21.61,
1173,-30.15,
1174,-37.46,
1175,-41.5,
1176,-40.02,
1177,-32.77,
1178,-20.17,
1179,-3.96,
1180,13.52,
1181,30.01,
1182,42.7,
1183,49.99,
1184,50.5,
1185,45.02,
1186,34.95,
1187,22.88,
1188,11.34,
1189,1.93,
1190,-4.23,
1191,-7.81,
1192,-9.41,
1193,-10.63,
1194,-12.22,
1195,-15.15,
1196,-19.76,
1197,-25.6,
1198,-32.0,
1199,-36.92,
1200,-38.82,
1201,-35.82,
1202,-27.68,
1203,-14.56,
1204,2.15,
1205,20.3,
1206,37.59,
1207,50.89,
1208,58.25,
1209,58.12,
1210,51.3,
1211,39.36,
1212,25.15,
1213,11.37,
1214,-0.24,
1215,-8.43,
1216,-13.69,
1217,-16.43,
1218,-18.14,
1219,-19.64,
1220,-22.19,
1221,-26.46,
1222,-32.33,
1223,-39.19,
1224,-44.82,
1225,-47.39,
1226,-44.7,
1227,-36.44,
1228,-22.85,
1229,-5.52,
1230,13.26,
1231,31.14,
1232,45.07,
1233,53.24,
1234,54.16,
1235,48.62,
1236,38.21,
1237,25.73,
1238,13.87,
1239,4.23,
1240,-2.18,
1241,-6.25,
1242,-8.83,
1243,-11.57,
1244,-15.25,
1245,-20.74,
1246,-28.25,
1247,-37.13,
1248,-46.4,
1249,-53.61,
1250,-56.82,
1251,-53.91,
1252,-44.72,
1253,-29.78,
1254,-10.96,
1255,9.23,
1256,28.45,
1257,43.8,
1258,53.76,
1259,57.05,
1260,54.54,
1261,47.7,
1262,39.18,
1263,31.43,
1264,25.82,
1265,23.05,
1266,21.86,
1267,21.08,
1268,18.77,
1269,14.13,
1270,6.36,
1271,-4.53,
1272,-17.57,
1273,-31.41,
1274,-43.22,
1275,-50.73,
1276,-51.61,
1277,-45.71,
1278,-33.7,
1279,-17.66,
1280,-0.15,
1281,16.62,
1282,30.09,
1283,39.11,
1284,42.68,
1285,41.72,
1286,37.59,
1287,32.76,
1288,29.41,
1289,28.56,
1290,30.3,
1291,32.62,
1292,33.69,
1293,31.19,
1294,24.48,
1295,13.37,
1296,-1.24,
1297,-17.56,
1298,-33.58,
1299,-46.11,
1300,-52.84,
1301,-51.67,
1302,-42.94,
1303,-28.02,
1304,-9.72,
1305,8.94,
1306,25.61,
1307,38.11,
1308,45.86,
1309,48.45,
1310,47.15,
1311,43.39,
1312,39.6,
1313,37.82,
1314,38.85,
1315,42.4,
1316,45.95,
1317,47.14,
1318,43.4,
1319,34.26,
1320,20.02,
1321,2.29,
1322,-16.61,
1323,-34.48,
1324,-48.27,
1325,-55.98,
1326,-55.83,
1327,-48.31,
1328,-34.8,
1329,-18.04,
1330,-1.0,
1331,14.03,
1332,24.9,
1333,31.18,
1334,32.64,
1335,30.72,
1336,26.93,
1337,23.74,
1338,23.08,
1339,25.52,
1340,30.42,
1341,34.94,
1342,36.48,
1343,32.47,
1344,22.67,
1345,7.81,
1346,-10.11,
1347,-28.57,
1348,-45.44,
1349,-57.93,
1350,-64.4,
1351,-63.25,
1352,-54.98,
1353,-40.8,
1354,-23.24,
1355,-5.19,
1356,11.0,
1357,23.0,
1358,30.16,
1359,32.1,
1360,30.25,
1361,26.25,
1362,22.71,
1363,21.73,
1364,23.98,
1365,28.91,
1366,33.68,
1367,35.6,
1368,31.94,
1369,22.23,
1370,6.92,
1371,-12.19,
1372,-32.72,
1373,-52.48,
1374,-68.56,
1375,-79.15,
1376,-82.54,
1377,-79.23,
1378,-70.51,
1379,-59.1,
1380,-47.74,
1381,-38.37,
1382,-32.35,
1383,-29.15,
1384,-28.04,
1385,-27.1,
1386,-24.99,
1387,-19.96,
1388,-11.09,
1389,1.24,
1390,15.59,
1391,28.55,
1392,37.05,
1393,38.21,
1394,31.8,
1395,18.87,
1396,2.0,
1397,-15.91,
1398,-32.65,
1399,-45.95,
1400,-54.99,
1401,-59.0,
1402,-58.96,
1403,-56.17,
1404,-53.06,
1405,-51.85,
1406,-53.57,
1407,-58.18,
1408,-63.4,
1409,-66.94,
1410,-66.07,
1411,-59.91,
1412,-48.21,
1413,-32.06,
1414,-13.43,
1415,5.55,
1416,21.75,
1417,33.0,
1418,37.32,
1419,35.04,
1420,27.37,
1421,16.81,
1422,5.92,
1423,-3.69,
1424,-10.77,
1425,-15.8,
1426,-19.18,
1427,-22.3,
1428,-25.9,
1429,-31.03,
1430,-38.13,
1431,-46.75,
1432,-56.0,
1433,-63.42,
1434,-67.02,
1435,-64.54,
1436,-55.65,
1437,-40.61,
1438,-21.06,
1439,0.67,
1440,22.2,
1441,40.43,
1442,53.48,
1443,59.75,
1444,59.85,
1445,55.08,
1446,47.94,
1447,40.78,
1448,34.99,
1449,31.45,
1450,29.3,
1451,27.8,
1452,25.43,
1453,21.54,
1454,15.27,
1455,6.5,
1456,-4.09,
1457,-15.31,
1458,-24.49,
1459,-29.42,
1460,-27.75,
1461,-19.2,
1462,-4.28,
1463,15.11,
1464,36.45,
1465,57.35,
1466,74.91,
1467,87.52,
1468,93.84,
1469,94.62,
1470,91.25,
1471,86.35,
1472,82.31,
1473,80.37,
1474,80.89,
1475,82.18,
1476,82.58,
1477,79.81,
1478,72.97,
1479,61.38,
1480,45.44,
1481,26.6,
1482,6.88,
1483,-10.24,
1484,-21.97,
1485,-25.81,
1486,-21.92,
1487,-11.7,
1488,1.96,
1489,16.0,
1490,28.26,
1491,36.81,
1492,41.42,
1493,41.86,
1494,39.44,
1495,35.51,
1496,32.37,
1497,31.91,
1498,34.69,
1499,39.98,
1500,44.76,
1501,46.17,
1502,41.41,
1503,30.21,
1504,13.44,
1505,-6.61,
1506,-27.13,
1507,-45.82,
1508,-59.88,
1509,-67.75,
1510,-67.95,
1511,-61.07,
1512,-48.33,
1513,-32.32,
1514,-15.89,
1515,-1.35,
1516,9.06,
1517,14.88,
1518,15.92,
1519,13.77,
1520,10.11,
1521,7.55,
1522,8.05,
1523,12.02,
1524,18.53,
1525,24.33,
1526,26.47,
1527,22.14,
1528,11.15,
1529,-5.55,
1530,-25.66,
1531,-46.47,
1532,-65.8,
1533,-80.99,
1534,-90.58,
1535,-93.11,
1536,-89.16,
1537,-79.97,
1538,-68.15,
1539,-56.49,
1540,-47.0,
1541,-41.12,
1542,-38.28,
1543,-37.65,
1544,-37.05,
1545,-34.93,
1546,-29.38,
1547,-19.46,
1548,-5.75,
1549,10.0,
1550,23.98,
1551,32.85,
1552,33.72,
1553,26.63,
1554,13.07,
1555,-3.97,
1556,-21.4,
1557,-37.18,
1558,-49.43,
1559,-57.74,
1560,-61.63,
1561,-62.03,
1562,-60.0,
1563,-57.67,
1564,-57.04,
1565,-59.12,
1566,-64.09,
1567,-69.89,
1568,-74.44,
1569,-74.92,
1570,-70.22,
1571,-59.65,
1572,-43.88,
1573,-24.64,
1574,-4.06,
1575,14.43,
1576,28.26,
1577,35.04,
1578,34.88,
1579,28.82,
1580,19.31,
1581,8.94,
1582,-0.43,
1583,-6.98,
1584,-10.37,
1585,-10.28,
1586,-7.9,
1587,-4.47,
1588,-2.22,
1589,-2.98,
1590,-7.35,
1591,-14.73,
1592,-22.36,
1593,-27.5,
1594,-27.2,
1595,-20.62,
1596,-7.78,
1597,9.91,
1598,30.31,
1599,51.26,
1600,69.69,
1601,83.53,
1602,90.83,
1603,91.83,
1604,87.62,
1605,80.65,
1606,73.46,
1607,67.71,
1608,64.53,
1609,63.2,
1610,62.95,
1611,61.88,
1612,58.83,
1613,52.34,
1614,41.76,
1615,27.7,
1616,11.66,
1617,-2.98,
1618,-13.28,
1619,-16.41,
1620,-12.14,
1621,-1.38,
1622,13.43,
1623,29.53,
1624,44.73,
1625,56.76,
1626,64.79,
1627,68.05,
1628,67.48,
1629,64.33,
1630,60.95,
1631,59.42,
1632,60.58,
1633,64.2,
1634,67.85,
1635,69.16,
1636,65.52,
1637,56.31,
1638,41.67,
1639,23.0,
1640,2.48,
1641,-17.7,
1642,-34.41,
1643,-45.51,
1644,-48.99,
1645,-45.16,
1646,-35.28,
1647,-22.02,
1648,-8.28,
1649,3.7,
1650,11.86,
1651,15.86,
1652,15.55,
1653,12.41,
1654,8.04,
1655,4.92,
1656,4.96,
1657,8.5,
1658,14.47,
1659,19.42,
1660,20.17,
1661,13.8,
1662,0.21,
1663,-19.4,
1664,-42.34,
1665,-65.65,
1666,-87.01,
1667,-103.85,
1668,-114.87,
1669,-118.81,
1670,-116.27,
1671,-108.51,
1672,-98.12,
1673,-87.87,
1674,-79.76,
1675,-75.24,
1676,-73.61,
1677,-73.85,
1678,-73.56,
1679,-70.98,
1680,-64.09,
1681,-51.93,
1682,-35.13,
1683,-15.53,
1684,2.9,
1685,16.67,
1686,22.78,
1687,21.13,
1688,13.12,
1689,1.68,
1690,-10.3,
1691,-20.9,
1692,-28.49,
1693,-32.87,
1694,-33.7,
1695,-31.97,
1696,-28.77,
1697,-26.23,
1698,-26.29,
1699,-29.71,
1700,-36.06,
1701,-42.53,
1702,-46.25,
1703,-44.11,
1704,-35.23,
1705,-19.76,
1706,0.61,
1707,23.45,
1708,46.42,
1709,66.42,
1710,81.48,
1711,89.8,
1712,91.72,
1713,88.45,
1714,82.54,
1715,76.61,
1716,72.31,
1717,70.66,
1718,70.68,
1719,71.27,
1720,70.32,
1721,66.55,
1722,58.58,
1723,46.04,
1724,29.9,
1725,12.15,
1726,-3.32,
1727,-13.25,
1728,-14.82,
1729,-8.16,
1730,5.11,
1731,21.76,
1732,38.54,
1733,53.22,
1734,63.9,
1735,70.34,
1736,72.28,
1737,70.91,
1738,67.52,
1739,64.4,
1740,63.54,
1741,65.59,
1742,69.88,
1743,73.25,
1744,72.66,
1745,65.12,
1746,50.29,
1747,29.12,
1748,4.1,
1749,-21.81,
1750,-46.2,
1751,-66.31,
1752,-80.61,
1753,-87.65,
1754,-87.94,
1755,-82.65,
1756,-74.32,
1757,-65.7,
1758,-58.91,
1759,-55.65,
1760,-55.63,
1761,-58.18,
1762,-61.05,
1763,-62.26,
1764,-59.31,
1765,-50.7,
1766,-36.77,
1767,-19.48,
1768,-3.19,
1769,8.19,
1770,11.36,
1771,6.32,
1772,-5.2,
1773,-19.96,
1774,-34.85,
1775,-47.97,
1776,-57.76,
1777,-64.09,
1778,-66.54,
1779,-65.92,
1780,-63.15,
1781,-60.19,
1782,-59.05,
1783,-60.73,
1784,-65.22,
1785,-70.13,
1786,-72.91,
1787,-70.52,
1788,-61.89,
1789,-46.8,
1790,-26.55,
1791,-3.36,
1792,20.42,
1793,41.49,
1794,57.58,
1795,66.63,
1796,68.9,
1797,65.53,
1798,59.12,
1799,52.34,
1800,47.03,
1801,44.59,
1802,44.56,
1803,46.35,
1804,48.0,
1805,48.02,
1806,44.38,
1807,35.93,
1808,23.12,
1809,7.85,
1810,-5.72,
1811,-13.87,
1812,-13.42,
1813,-4.41,
1814,11.38,
1815,30.53,
1816,49.64,
1817,66.42,
1818,78.98,
1819,87.11,
1820,90.45,
1821,90.12,
1822,87.37,
1823,84.55,
1824,83.75,
1825,85.67,
1826,89.58,
1827,92.14,
1828,90.08,
1829,80.35,
1830,62.84,
1831,38.94,
1832,11.7,
1833,-15.55,
1834,-40.29,
1835,-59.94,
1836,-73.32,
1837,-79.27,
1838,-78.45,
1839,-72.04,
1840,-62.57,
1841,-52.83,
1842,-45.01,
1843,-40.91,
1844,-40.23,
1845,-42.27,
1846,-44.7,
1847,-45.61,
1848,-42.58,
1849,-34.39,
1850,-21.51,
1851,-5.97,
1852,7.99,
1853,16.67,
1854,17.02,
1855,9.19,
1856,-5.1,
1857,-22.58,
1858,-40.18,
1859,-55.93,
1860,-68.16,
1861,-76.61,
1862,-80.77,
1863,-81.49,
1864,-79.69,
1865,-77.44,
1866,-76.76,
1867,-78.67,
1868,-83.2,
1869,-88.02,
1870,-90.69,
1871,-88.27,
1872,-79.79,
1873,-65.04,
1874,-45.28,
1875,-22.66,
1876,0.54,
1877,21.09,
1878,36.72,
1879,45.35,
1880,47.19,
1881,43.3,
1882,36.15,
1883,28.36,
1884,21.79,
1885,18.0,
1886,16.84,
1887,18.03,
1888,19.96,
1889,21.28,
1890,20.04,
1891,15.04,
1892,6.47,
1893,-4.24,
1894,-13.51,
1895,-18.15,
1896,-15.22,
1897,-4.5,
1898,12.88,
1899,34.27,
1900,56.74,
1901,77.99,
1902,95.57,
1903,108.43,
1904,115.55,
1905,117.67,
1906,116.01,
1907,112.97,
1908,110.82,
1909,110.69,
1910,112.64,
1911,114.46,
1912,113.94,
1913,108.46,
1914,97.35,
1915,80.6,
1916,59.49,
1917,36.13,
1918,12.72,
1919,-7.58,
1920,-22.48,
1921,-29.82,
1922,-29.8,
1923,-23.58,
1924,-13.77,
1925,-3.26,
1926,5.74,
1927,11.22,
1928,12.9,
1929,10.76,
1930,6.43,
1931,1.65,
1932,-0.94,
1933,0.58,
1934,6.42,
1935,15.15,
1936,22.76,
1937,25.56,
1938,20.3,
1939,6.87,
1940,-13.23,
1941,-36.97,
1942,-61.18,
1943,-83.64,
1944,-102.11,
1945,-115.71,
1946,-123.42,
1947,-125.84,
1948,-123.96,
1949,-120.03,
1950,-116.43,
1951,-114.71,
1952,-115.69,
1953,-117.95,
1954,-119.82,
1955,-118.63,
1956,-112.94,
1957,-101.53,
1958,-84.45,
1959,-63.01,
1960,-39.3,
1961,-17.04,
1962,0.75,
1963,11.31,
1964,14.55,
1965,11.58,
1966,5.0,
1967,-2.48,
1968,-8.94,
1969,-12.65,
1970,-13.42,
1971,-11.08,
1972,-6.91,
1973,-2.28,
1974,0.47,
1975,-0.46,
1976,-5.43,
1977,-13.21,
1978,-20.13,
1979,-22.68,
1980,-17.59,
1981,-4.45,
1982,15.58,
1983,39.7,
1984,64.84,
1985,88.53,
1986,108.25,
1987,122.87,
1988,131.3,
1989,134.23,
1990,132.9,
1991,129.79,
1992,127.29,
1993,126.6,
1994,127.78,
1995,128.5,
1996,126.42,
1997,118.86,
1998,105.2,
1999,85.64,
2000,61.68,
2001,35.64,
2002,9.73,
2003,-12.91,
2004,-30.13,
2005,-39.86,
2006,-42.3,
2007,-38.55,
2008,-31.18,
2009,-23.09,
2010,-16.49,
2011,-13.42,
2012,-14.04,
2013,-18.18,
2014,-23.9,
2015,-29.16,
2016,-31.02,
2017,-27.43,
2018,-18.24,
2019,-5.28,
2020,6.92,
2021,14.14,
2022,12.82,
2023,2.9,
2024,-13.77,
2025,-33.72,
2026,-53.63,
2027,-71.43,
2028,-85.4,
2029,-95.27,
2030,-100.49,
2031,-101.83,
2032,-100.2,
2033,-97.7,
2034,-96.47,
2035,-97.65,
2036,-101.34,
2037,-105.21,
2038,-106.72,
2039,-102.88,
2040,-92.72,
2041,-76.18,
2042,-54.68,
2043,-30.55,
2044,-6.16,
2045,15.28,
2046,31.59,
2047,40.78,
2048,43.1,
2049,39.63,
2050,32.82,
2051,25.32,
2052,19.03,
2053,15.61,
2054,14.98,
2055,16.9,
2056,19.7,
2057,21.92,
2058,21.47,
2059,17.01,
2060,8.68,
2061,-2.05,
2062,-11.54,
2063,-16.47,
2064,-13.85,
2065,-3.45,
2066,13.57,
2067,34.54,
2068,56.55,
2069,77.33,
2070,94.52,
2071,107.13,
2072,114.16,
2073,116.33,
2074,114.8,
2075,111.96,
2076,110.06,
2077,110.14,
2078,112.18,
2079,113.81,
2080,112.72,
2081,106.27,
2082,93.85,
2083,75.71,
2084,53.33,
2085,28.99,
2086,4.9,
2087,-15.85,
2088,-31.13,
2089,-38.9,
2090,-39.36,
2091,-33.64,
2092,-24.3,
2093,-14.2,
2094,-5.62,
2095,-0.61,
2096,0.55,
2097,-2.09,
2098,-6.76,
2099,-11.58,
2100,-13.74,
2101,-11.25,
2102,-3.9,
2103,6.74,
2104,16.51,
2105,21.52,
2106,18.44,
2107,7.11,
2108,-10.94,
2109,-32.62,
2110,-54.79,
2111,-75.35,
2112,-92.23,
2113,-104.73,
2114,-111.96,
2115,-114.52,
2116,-113.35,
2117,-110.58,
2118,-108.47,
2119,-108.37,
2120,-110.84,
2121,-114.12,
2122,-116.31,
2123,-114.65,
2124,-107.9,
2125,-95.2,
2126,-77.04,
2127,-55.05,
2128,-31.38,
2129,-9.56,
2130,7.65,
2131,17.72,
2132,20.63,
2133,17.42,
2134,10.56,
2135,2.73,
2136,-4.15,
2137,-8.25,
2138,-9.32,
2139,-7.15,
2140,-3.08,
2141,1.5,
2142,4.24,
2143,3.34,
2144,-1.54,
2145,-9.28,
2146,-16.37,
2147,-19.44,
2148,-15.3,
2149,-3.47,
2150,15.14,
2151,38.06,
2152,62.4,
2153,85.8,
2154,105.61,
2155,120.5,
2156,129.21,
2157,132.38,
2158,131.23,
2159,128.28,
2160,125.93,
2161,125.34,
2162,126.58,
2163,127.36,
2164,125.45,
2165,118.25,
2166,105.18,
2167,86.38,
2168,63.24,
2169,37.94,
2170,12.6,
2171,-9.67,
2172,-26.66,
2173,-36.25,
2174,-38.56,
2175,-34.61,
2176,-26.94,
2177,-18.39,
2178,-11.23,
2179,-7.51,
2180,-7.53,
2181,-11.23,
2182,-16.79,
2183,-22.23,
2184,-24.66,
2185,-22.0,
2186,-14.0,
2187,-2.25,
2188,9.01,
2189,15.77,
2190,14.56,
2191,5.16,
2192,-10.96,
2193,-30.72,
2194,-51.02,
2195,-69.77,
2196,-84.98,
2197,-96.02,
2198,-102.04,
2199,-103.72,
2200,-102.03,
2201,-99.2,
2202,-97.51,
2203,-98.18,
2204,-101.37,
2205,-104.84,
2206,-106.14,
2207,-102.33,
2208,-92.39,
2209,-76.12,
2210,-54.79,
2211,-30.57,
2212,-5.81,
2213,16.22,
2214,33.22,
2215,43.1,
2216,46.09,
2217,43.37,
2218,37.55,
2219,31.36,
2220,26.6,
2221,24.58,
2222,24.71,
2223,26.27,
2224,27.4,
2225,26.78,
2226,22.76,
2227,14.6,
2228,3.0,
2229,-10.09,
2230,-20.66,
2231,-25.23,
2232,-20.89,
2233,-7.84,
2234,12.08,
2235,35.34,
2236,58.42,
2237,78.86,
2238,94.57,
2239,105.15,
2240,110.2,
2241,110.89,
2242,108.57,
2243,105.72,
2244,104.55,
2245,105.88,
2246,109.08,
2247,110.95,
2248,108.29,
2249,98.07,
2250,80.02,
2251,55.34,
2252,26.8,
2253,-2.42,
2254,-29.88,
2255,-52.92,
2256,-70.19,
2257,-80.4,
2258,-84.09,
2259,-82.34,
2260,-77.6,
2261,-72.54,
2262,-69.09,
2263,-68.75,
2264,-70.9,
2265,-74.59,
2266,-77.43,
2267,-77.59,
2268,-72.89,
2269,-62.32,
2270,-46.54,
2271,-27.61,
2272,-9.8,
2273,3.17,
2274,8.16,
2275,5.16,
2276,-4.25,
2277,-16.97,
2278,-29.99,
2279,-41.4,
2280,-49.59,
2281,-54.38,
2282,-55.38,
2283,-53.52,
2284,-49.85,
2285,-46.51,
2286,-45.5,
2287,-47.71,
2288,-52.74,
2289,-57.78,
2290,-59.9,
2291,-55.9,
2292,-44.94,
2293,-27.28,
2294,-4.78,
2295,19.96,
2296,44.52,
2297,65.85,
2298,82.08,
2299,91.51,
2300,94.59,
2301,92.58,
2302,88.07,
2303,83.65,
2304,80.9,
2305,80.61,
2306,81.47,
2307,82.14,
2308,80.36,
2309,75.0,
2310,64.99,
2311,50.36,
2312,32.37,
2313,13.11,
2314,-3.64,
2315,-14.75,
2316,-17.5,
2317,-12.05,
2318,0.02,
2319,15.5,
2320,31.15,
2321,44.64,
2322,54.03,
2323,59.09,
2324,59.66,
2325,57.11,
2326,52.92,
2327,49.58,
2328,49.13,
2329,52.05,
2330,57.22,
2331,60.91,
2332,59.54,
2333,49.92,
2334,31.94,
2335,7.14,
2336,-21.23,
2337,-49.79,
2338,-76.04,
2339,-97.56,
2340,-113.37,
2341,-122.47,
2342,-125.56,
2343,-123.78,
2344,-119.55,
2345,-115.41,
2346,-113.1,
2347,-113.58,
2348,-115.61,
2349,-117.62,
2350,-116.92,
2351,-111.96,
2352,-101.28,
2353,-84.72,
2354,-63.46,
2355,-39.6,
2356,-16.95,
2357,1.3,
2358,12.32,
2359,16.0,
2360,13.51,
2361,7.5,
2362,0.68,
2363,-5.09,
2364,-8.2,
2365,-8.55,
2366,-6.0,
2367,-1.81,
2368,2.66,
2369,5.14,
2370,3.78,
2371,-1.77,
2372,-10.29,
2373,-18.06,
2374,-21.42,
2375,-17.02,
2376,-4.44,
2377,15.13,
2378,38.79,
2379,63.35,
2380,86.3,
2381,105.17,
2382,118.89,
2383,126.5,
2384,128.78,
2385,127.05,
2386,123.87,
2387,121.67,
2388,121.54,
2389,123.3,
2390,124.21,
2391,121.56,
2392,112.44,
2393,96.35,
2394,73.85,
2395,46.94,
2396,18.27,
2397,-9.84,
2398,-34.47,
2399,-53.76,
2400,-65.97,
2401,-71.38,
2402,-71.05,
2403,-67.48,
2404,-63.36,
2405,-60.68,
2406,-61.03,
2407,-63.98,
2408,-68.81,
2409,-73.27,
2410,-75.43,
2411,-72.85,
2412,-64.11,
2413,-49.56,
2414,-31.18,
2415,-13.37,
2416,-0.14,
2417,5.08,
2418,2.13,
2419,-7.41,
2420,-20.34,
2421,-33.56,
2422,-45.06,
2423,-53.21,
2424,-57.83,
2425,-58.54,
2426,-56.33,
2427,-52.36,
2428,-48.92,
2429,-48.13,
2430,-50.8,
2431,-56.24,
2432,-61.15,
2433,-62.14,
2434,-55.84,
2435,-41.65,
2436,-20.46,
2437,5.09,
2438,31.88,
2439,57.34,
2440,78.71,
2441,94.66,
2442,103.94,
2443,107.24,
2444,105.84,
2445,102.29,
2446,99.13,
2447,97.75,
2448,98.58,
2449,99.75,
2450,99.31,
2451,94.72,
2452,85.11,
2453,70.12,
2454,50.64,
2455,28.56,
2456,6.12,
2457,-13.25,
2458,-26.94,
2459,-32.66,
2460,-30.63,
2461,-22.21,
2462,-10.31,
2463,2.02,
2464,12.49,
2465,19.08,
2466,21.55,
2467,19.87,
2468,15.74,
2469,11.01,
2470,8.52,
2471,10.46,
2472,17.21,
2473,27.27,
2474,36.4,
2475,40.52,
2476,36.12,
2477,23.02,
2478,2.99,
2479,-20.56,
2480,-44.18,
2481,-65.56,
2482,-82.66,
2483,-94.92,
2484,-101.64,
2485,-103.65,
2486,-102.11,
2487,-99.43,
2488,-98.01,
2489,-99.12,
2490,-102.71,
2491,-106.11,
2492,-106.49,
2493,-100.67,
2494,-87.83,
2495,-68.28,
2496,-43.96,
2497,-17.56,
2498,8.43,
2499,30.95,
2500,48.15,
2501,58.36,
2502,62.06,
2503,60.51,
2504,56.36,
2505,52.22,
2506,49.71,
2507,49.64,
2508,50.72,
2509,51.61,
2510,50.1,
2511,45.13,
2512,35.78,
2513,22.18,
2514,5.71,
2515,-11.47,
2516,-25.56,
2517,-33.48,
2518,-32.62,
2519,-23.28,
2520,-7.23,
2521,12.13,
2522,31.34,
2523,47.9,
2524,59.73,
2525,66.56,
2526,68.28,
2527,66.44,
2528,62.78,
2529,60.15,
2530,60.84,
2531,65.45,
2532,72.69,
2533,78.45,
2534,78.71,
2535,70.01,
2536,52.3,
2537,27.5,
2538,-0.69,
2539,-28.58,
2540,-53.64,
2541,-73.8,
2542,-88.47,
2543,-97.02,
2544,-100.33,
2545,-99.6,
2546,-97.31,
2547,-95.95,
2548,-96.94,
2549,-100.46,
2550,-104.11,
2551,-105.2,
2552,-100.57,
2553,-89.21,
2554,-71.09,
2555,-47.85,
2556,-21.98,
2557,3.98,
2558,26.82,
2559,44.43,
2560,55.01,
2561,59.0,
2562,57.75,
2563,53.95,
2564,50.23,
2565,48.1,
2566,48.29,
2567,49.5,
2568,50.4,
2569,48.84,
2570,43.78,
2571,34.24,
2572,20.24,
2573,2.98,
2574,-15.5,
2575,-31.44,
2576,-41.71,
2577,-43.6,
2578,-37.24,
2579,-24.22,
2580,-7.8,
2581,8.64,
2582,22.68,
2583,32.29,
2584,37.22,
2585,37.41,
2586,34.52,
2587,30.41,
2588,28.04,
2589,29.83,
2590,36.43,
2591,46.52,
2592,55.91,
2593,60.41,
2594,56.37,
2595,43.55,
2596,23.71,
2597,0.37,
2598,-22.92,
2599,-43.81,
2600,-60.33,
2601,-72.03,
2602,-78.34,
2603,-80.16,
2604,-78.69,
2605,-76.36,
2606,-75.56,
2607,-77.52,
2608,-82.09,
2609,-86.52,
2610,-87.81,
2611,-82.7,
2612,-70.32,
2613,-51.0,
2614,-26.8,
2615,-0.49,
2616,25.35,
2617,47.69,
2618,64.7,
2619,74.81,
2620,78.59,
2621,77.35,
2622,73.77,
2623,70.42,
2624,68.79,
2625,69.51,
2626,71.05,
2627,71.86,
2628,69.67,
2629,63.51,
2630,52.64,
2631,37.44,
2632,19.41,
2633,0.7,
2634,-15.04,
2635,-24.89,
2636,-26.3,
2637,-19.54,
2638,-6.19,
2639,10.55,
2640,27.38,
2641,41.9,
2642,52.07,
2643,57.65,
2644,58.52,
2645,56.2,
2646,52.35,
2647,49.68,
2648,50.29,
2649,54.65,
2650,61.41,
2651,66.57,
2652,66.26,
2653,57.16,
2654,39.23,
2655,14.3,
2656,-14.14,
2657,-42.53,
2658,-68.42,
2659,-89.66,
2660,-105.54,
2661,-115.29,
2662,-119.66,
2663,-119.72,
2664,-117.75,
2665,-116.15,
2666,-116.4,
2667,-119.14,
2668,-122.66,
2669,-125.0,
2670,-123.36,
2671,-116.46,
2672,-103.45,
2673,-84.86,
2674,-62.4,
2675,-38.29,
2676,-16.11,
2677,1.4,
2678,11.76,
2679,14.99,
2680,12.18,
2681,5.84,
2682,-1.43,
2683,-7.76,
2684,-11.43,
2685,-12.26,
2686,-10.06,
2687,-6.11,
2688,-1.7,
2689,0.96,
2690,0.16,
2691,-4.42,
2692,-11.77,
2693,-18.56,
2694,-21.6,
2695,-17.75,
2696,-6.5,
2697,11.48,
2698,33.91,
2699,58.05,
2700,81.56,
2701,101.68,
2702,116.92,
2703,125.88,
2704,129.12,
2705,127.84,
2706,124.55,
2707,121.68,
2708,120.48,
2709,121.16,
2710,121.68,
2711,119.97,
2712,113.51,
2713,101.51,
2714,83.8,
2715,61.37,
2716,36.13,
2717,10.2,
2718,-13.15,
2719,-31.44,
2720,-42.31,
2721,-45.79,
2722,-42.96,
2723,-36.47,
2724,-29.19,
2725,-23.33,
2726,-20.84,
2727,-21.82,
2728,-26.08,
2729,-31.72,
2730,-36.7,
2731,-38.08,
2732,-33.72,
2733,-23.43,
2734,-8.99,
2735,5.02,
2736,14.21,
2737,14.89,
2738,6.88,
2739,-8.03,
2740,-26.31,
2741,-44.56,
2742,-60.61,
2743,-72.74,
2744,-80.69,
2745,-83.98,
2746,-83.48,
2747,-80.28,
2748,-76.7,
2749,-75.04,
2750,-76.38,
2751,-80.39,
2752,-84.08,
2753,-84.24,
2754,-77.52,
2755,-63.14,
2756,-41.75,
2757,-15.74,
2758,11.85,
2759,38.37,
2760,60.86,
2761,77.72,
2762,87.57,
2763,91.09,
2764,89.65,
2765,85.97,
2766,82.66,
2767,81.18,
2768,81.96,
2769,83.12,
2770,82.67,
2771,78.04,
2772,68.23,
2773,52.73,
2774,32.28,
2775,8.64,
2776,-15.98,
2777,-38.09,
2778,-55.03,
2779,-64.45,
2780,-66.52,
2781,-62.58,
2782,-55.5,
2783,-48.22,
2784,-42.74,
2785,-40.59,
2786,-41.4,
2787,-44.64,
2788,-48.33,
2789,-50.62,
2790,-48.96,
2791,-41.55,
2792,-28.21,
2793,-10.51,
2794,7.39,
2795,21.43,
2796,27.94,
2797,26.45,
2798,18.22,
2799,6.29,
2800,-6.26,
2801,-17.32,
2802,-25.07,
2803,-29.23,
2804,-29.36,
2805,-26.58,
2806,-22.3,
2807,-19.13,
2808,-19.43,
2809,-24.02,
2810,-31.95,
2811,-39.39,
2812,-42.44,
2813,-37.39,
2814,-23.69,
2815,-2.61,
2816,22.68,
2817,48.67,
2818,72.63,
2819,92.0,
2820,105.8,
2821,113.2,
2822,115.18,
2823,113.34,
2824,110.47,
2825,109.2,
2826,110.55,
2827,113.83,
2828,115.61,
2829,112.44,
2830,101.09,
2831,81.32,
2832,54.58,
2833,23.93,
2834,-7.22,
2835,-36.27,
2836,-60.68,
2837,-79.28,
2838,-90.94,
2839,-96.34,
2840,-96.72,
2841,-94.64,
2842,-92.79,
2843,-92.83,
2844,-95.44,
2845,-98.87,
2846,-101.1,
2847,-99.21,
2848,-91.8,
2849,-77.97,
2850,-58.23,
2851,-34.31,
2852,-8.56,
2853,15.35,
2854,34.57,
2855,46.66,
2856,51.79,
2857,51.31,
2858,48.06,
2859,44.74,
2860,42.96,
2861,43.62,
2862,45.79,
2863,48.57,
2864,50.06,
2865,49.04,
2866,43.92,
2867,33.88,
2868,19.46,
2869,2.4,
2870,-13.38,
2871,-24.32,
2872,-27.24,
2873,-21.95,
2874,-9.9,
2875,5.74,
2876,21.69,
2877,35.63,
2878,45.58,
2879,51.24,
2880,52.33,
2881,50.13,
2882,46.11,
2883,42.84,
2884,42.56,
2885,46.09,
2886,52.72,
2887,59.09,
2888,61.76,
2889,57.37,
2890,45.27,
2891,26.29,
2892,2.98,
2893,-21.66,
2894,-45.2,
2895,-65.06,
2896,-80.07,
2897,-89.15,
2898,-93.07,
2899,-93.06,
2900,-91.53,
2901,-90.74,
2902,-91.86,
2903,-95.02,
2904,-98.12,
2905,-99.0,
2906,-94.91,
2907,-84.88,
2908,-68.57,
2909,-47.09,
2910,-22.47,
2911,2.99,
2912,26.04,
2913,44.49,
2914,56.46,
2915,62.4,
2916,63.63,
2917,62.78,
2918,62.24,
2919,63.05,
2920,65.3,
2921,66.98,
2922,66.29,
2923,61.04,
2924,50.73,
2925,35.3,
2926,15.8,
2927,-5.9,
2928,-27.65,
2929,-46.18,
2930,-59.08,
2931,-64.18,
2932,-61.8,
2933,-53.42,
2934,-42.12,
2935,-31.04,
2936,-22.31,
2937,-17.32,
2938,-15.39,
2939,-15.61,
2940,-15.82,
2941,-14.49,
2942,-9.74,
2943,-0.59,
2944,12.5,
2945,27.88,
2946,41.81,
2947,51.03,
2948,52.61,
2949,46.56,
2950,34.37,
2951,19.08,
2952,3.72,
2953,-9.8,
2954,-19.98,
2955,-27.01,
2956,-30.94,
2957,-33.02,
2958,-34.28,
2959,-36.46,
2960,-40.94,
2961,-47.87,
2962,-56.31,
2963,-63.07,
2964,-65.13,
2965,-59.49,
2966,-45.82,
2967,-25.13,
2968,-0.17,
2969,25.82,
2970,50.14,
2971,70.02,
2972,84.25,
2973,91.89,
2974,94.01,
2975,92.26,
2976,89.49,
2977,88.24,
2978,89.45,
2979,92.58,
2980,94.48,
2981,92.11,
2982,82.53,
2983,65.48,
2984,42.01,
2985,14.64,
2986,-13.69,
2987,-40.6,
2988,-63.38,
2989,-80.54,
2990,-90.66,
2991,-94.24,
2992,-92.54,
2993,-88.23,
2994,-84.08,
2995,-81.9,
2996,-82.57,
2997,-84.62,
2998,-86.28,
2999,-84.78,
3000,-78.6,
3001,-66.5,
3002,-48.52,
3003,-26.01,
3004,-1.12,
3005,22.38,
3006,41.42,
3007,53.35,
3008,58.17,
3009,57.24,
3010,53.48,
3011,49.68,
3012,47.45,
3013,47.62,
3014,49.11,
3015,50.89,
3016,50.96,
3017,48.11,
3018,40.88,
3019,28.61,
3020,11.94,
3021,-7.33,
3022,-25.34,
3023,-38.59,
3024,-43.96,
3025,-41.28,
3026,-32.05,
3027,-19.48,
3028,-6.86,
3029,3.61,
3030,10.32,
3031,13.49,
3032,13.41,
3033,11.75,
3034,10.03,
3035,10.55,
3036,15.06,
3037,23.8,
3038,35.45,
3039,46.22,
3040,52.48,
3041,50.91,
3042,41.27,
3043,25.0,
3044,5.25,
3045,-14.75,
3046,-32.79,
3047,-47.01,
3048,-57.14,
3049,-62.88,
3050,-65.29,
3051,-65.51,
3052,-65.61,
3053,-67.39,
3054,-71.48,
3055,-77.33,
3056,-82.04,
3057,-82.79,
3058,-76.57,
3059,-62.87,
3060,-42.35,
3061,-17.41,
3062,9.0,
3063,34.29,
3064,55.74,
3065,72.12,
3066,82.46,
3067,87.71,
3068,89.21,
3069,89.3,
3070,89.97,
3071,91.91,
3072,94.83,
3073,96.33,
3074,94.22,
3075,86.15,
3076,71.86,
3077,51.94,
3078,28.27,
3079,3.36,
3080,-20.51,
3081,-40.53,
3082,-55.06,
3083,-62.72,
3084,-64.17,
3085,-60.75,
3086,-55.01,
3087,-49.45,
3088,-45.54,
3089,-44.08,
3090,-43.88,
3091,-43.7,
3092,-41.39,
3093,-35.89,
3094,-26.16,
3095,-12.31,
3096,4.41,
3097,22.0,
3098,36.93,
3099,46.47,
3100,48.27,
3101,42.71,
3102,31.39,
3103,17.38,
3104,3.61,
3105,-8.13,
3106,-16.64,
3107,-22.54,
3108,-26.29,
3109,-29.39,
3110,-32.65,
3111,-37.37,
3112,-44.25,
3113,-52.93,
3114,-62.27,
3115,-69.19,
3116,-70.98,
3117,-64.98,
3118,-51.07,
3119,-30.35,
3120,-5.58,
3121,20.06,
3122,43.89,
3123,63.22,
3124,76.95,
3125,84.24,
3126,86.2,
3127,84.41,
3128,81.61,
3129,80.15,
3130,81.0,
3131,83.79,
3132,85.76,
3133,84.24,
3134,76.47,
3135,62.06,
3136,41.7,
3137,17.49,
3138,-7.9,
3139,-32.15,
3140,-52.52,
3141,-67.49,
3142,-75.7,
3143,-77.8,
3144,-75.09,
3145,-70.12,
3146,-65.37,
3147,-62.31,
3148,-61.57,
3149,-61.72,
3150,-61.23,
3151,-57.8,
3152,-50.39,
3153,-38.23,
3154,-21.74,
3155,-2.4,
3156,17.73,
3157,35.3,
3158,47.81,
3159,53.1,
3160,51.53,
3161,44.57,
3162,35.04,
3163,25.66,
3164,18.0,
3165,12.95,
3166,9.6,
3167,7.13,
3168,3.87,
3169,-0.99,
3170,-8.48,
3171,-18.91,
3172,-31.47,
3173,-44.6,
3174,-54.97,
3175,-59.78,
3176,-56.42,
3177,-44.98,
3178,-26.84,
3179,-5.04,
3180,17.11,
3181,37.07,
3182,52.5,
3183,62.76,
3184,67.44,
3185,67.84,
3186,65.52,
3187,63.06,
3188,62.58,
3189,64.8,
3190,69.04,
3191,72.18,
3192,71.27,
3193,63.41,
3194,48.37,
3195,27.19,
3196,2.51,
3197,-22.69,
3198,-46.03,
3199,-64.97,
3200,-78.4,
3201,-85.3,
3202,-86.5,
3203,-83.3,
3204,-78.17,
3205,-73.48,
3206,-70.61,
3207,-70.07,
3208,-70.25,
3209,-69.46,
3210,-65.21,
3211,-56.48,
3212,-42.63,
3213,-24.35,
3214,-3.29,
3215,18.39,
3216,37.44,
3217,51.57,
3218,58.8,
3219,59.6,
3220,55.36,
3221,48.77,
3222,42.33,
3223,37.36,
3224,34.51,
3225,32.57,
3226,30.56,
3227,26.72,
3228,20.38,
3229,10.8,
3230,-1.96,
3231,-16.85,
3232,-32.2,
3233,-44.8,
3234,-51.99,
3235,-51.32,
3236,-42.87,
3237,-27.92,
3238,-9.35,
3239,9.68,
3240,26.78,
3241,39.72,
3242,48.05,
3243,51.51,
3244,51.5,
3245,49.58,
3246,48.19,
3247,49.29,
3248,53.39,
3249,59.69,
3250,65.01,
3251,66.36,
3252,60.81,
3253,48.05,
3254,29.02,
3255,6.19,
3256,-17.59,
3257,-40.02,
3258,-58.62,
3259,-72.24,
3260,-79.81,
3261,-82.11,
3262,-80.34,
3263,-76.93,
3264,-74.18,
3265,-73.36,
3266,-74.84,
3267,-76.78,
3268,-77.29,
3269,-73.76,
3270,-65.17,
3271,-50.96,
3272,-31.91,
3273,-9.81,
3274,13.15,
3275,33.68,
3276,49.43,
3277,58.36,
3278,60.87,
3279,58.32,
3280,53.38,
3281,48.58,
3282,45.24,
3283,43.94,
3284,43.34,
3285,42.25,
3286,38.81,
3287,32.29,
3288,21.97,
3289,8.06,
3290,-8.24,
3291,-25.02,
3292,-38.83,
3293,-46.82,
3294,-46.49,
3295,-38.04,
3296,-23.02,
3297,-4.59,
3298,13.91,
3299,30.06,
3300,41.8,
3301,48.89,
3302,51.26,
3303,50.45,
3304,48.1,
3305,46.77,
3306,48.47,
3307,53.73,
3308,61.53,
3309,68.32,
3310,70.68,
3311,65.41,
3312,52.2,
3313,32.24,
3314,8.38,
3315,-16.28,
3316,-39.41,
3317,-58.72,
3318,-73.33,
3319,-82.37,
3320,-86.62,
3321,-87.18,
3322,-86.33,
3323,-86.22,
3324,-87.99,
3325,-91.84,
3326,-95.71,
3327,-97.45,
3328,-94.29,
3329,-85.2,
3330,-69.79,
3331,-49.14,
3332,-25.27,
3333,-0.51,
3334,21.88,
3335,39.68,
3336,50.99,
3337,56.23,
3338,56.69,
3339,54.9,
3340,53.18,
3341,52.66,
3342,53.7,
3343,54.77,
3344,54.55,
3345,51.12,
3346,43.9,
3347,32.43,
3348,17.24,
3349,-0.19,
3350,-17.8,
3351,-32.19,
3352,-40.66,
3353,-40.88,
3354,-33.17,
3355,-19.11,
3356,-1.85,
3357,15.39,
3358,30.29,
3359,40.97,
3360,47.41,
3361,49.67,
3362,49.34,
3363,47.88,
3364,47.6,
3365,50.19,
3366,55.97,
3367,63.87,
3368,70.48,
3369,72.57,
3370,67.09,
3371,53.79,
3372,33.83,
3373,9.96,
3374,-14.77,
3375,-38.0,
3376,-57.37,
3377,-71.9,
3378,-80.66,
3379,-84.42,
3380,-84.36,
3381,-82.8,
3382,-81.97,
3383,-83.09,
3384,-86.47,
3385,-90.23,
3386,-92.37,
3387,-90.21,
3388,-82.64,
3389,-69.04,
3390,-50.16,
3391,-27.78,
3392,-4.11,
3393,17.48,
3394,34.58,
3395,45.05,
3396,49.17,
3397,48.19,
3398,44.66,
3399,40.98,
3400,38.45,
3401,37.75,
3402,37.73,
3403,37.47,
3404,35.26,
3405,30.38,
3406,22.02,
3407,10.14,
3408,-4.21,
3409,-19.3,
3410,-31.75,
3411,-38.73,
3412,-37.64,
3413,-28.54,
3414,-12.77,
3415,6.71,
3416,26.71,
3417,44.72,
3418,58.4,
3419,67.06,
3420,70.22,
3421,69.13,
3422,65.36,
3423,61.56,
3424,59.97,
3425,61.37,
3426,65.11,
3427,68.02,
3428,67.05,
3429,59.26,
3430,44.35,
3431,23.3,
3432,-1.37,
3433,-26.76,
3434,-50.48,
3435,-69.81,
3436,-83.31,
3437,-89.61,
3438,-89.35,
3439,-83.88,
3440,-75.89,
3441,-68.2,
3442,-62.67,
3443,-60.42,
3444,-60.36,
3445,-61.14,
3446,-60.29,
3447,-56.33,
3448,-47.77,
3449,-34.27,
3450,-16.83,
3451,2.6,
3452,20.31,
3453,33.28,
3454,38.82,
3455,37.03,
3456,29.3,
3457,18.47,
3458,7.33,
3459,-2.36,
3460,-9.26,
3461,-13.58,
3462,-15.42,
3463,-16.01,
3464,-16.31,
3465,-17.97,
3466,-22.22,
3467,-29.2,
3468,-38.02,
3469,-45.7,
3470,-49.46,
3471,-46.38,
3472,-35.97,
3473,-18.84,
3474,2.79,
3475,26.16,
3476,48.8,
3477,67.86,
3478,81.87,
3479,89.58,
3480,91.74,
3481,89.76,
3482,86.24,
3483,83.62,
3484,83.04,
3485,84.6,
3486,86.15,
3487,85.58,
3488,80.4,
3489,69.93,
3490,54.06,
3491,33.94,
3492,11.55,
3493,-10.93,
3494,-30.23,
3495,-44.0,
3496,-50.12,
3497,-48.89,
3498,-41.67,
3499,-31.32,
3500,-20.79,
3501,-12.12,
3502,-6.84,
3503,-4.59,
3504,-4.9,
3505,-5.94,
3506,-6.3,
3507,-4.06,
3508,2.04,
3509,11.82,
3510,23.93,
3511,34.85,
3512,41.37,
3513,40.5,
3514,32.0,
3515,16.95,
3516,-2.04,
3517,-22.08,
3518,-41.0,
3519,-56.51,
3520,-67.74,
3521,-73.78,
3522,-75.41,
3523,-73.71,
3524,-70.93,
3525,-69.24,
3526,-69.81,
3527,-73.0,
3528,-77.0,
3529,-79.91,
3530,-79.04,
3531,-73.17,
3532,-61.45,
3533,-44.33,
3534,-23.39,
3535,-0.84,
3536,19.73,
3537,35.57,
3538,44.24,
3539,45.91,
3540,41.88,
3541,34.89,
3542,27.63,
3543,21.73,
3544,18.32,
3545,16.77,
3546,16.55,
3547,16.14,
3548,14.62,
3549,10.59,
3550,3.29,
3551,-6.99,
3552,-19.04,
3553,-29.74,
3554,-36.27,
3555,-35.78,
3556,-27.88,
3557,-13.32,
3558,5.6,
3559,26.04,
3560,45.6,
3561,61.62,
3562,72.85,
3563,78.24,
3564,78.68,
3565,75.55,
3566,71.36,
3567,68.4,
3568,67.73,
3569,69.38,
3570,71.22,
3571,71.18,
3572,66.78,
3573,57.33,
3574,42.72,
3575,24.06,
3576,3.3,
3577,-17.45,
3578,-35.11,
3579,-47.55,
3580,-52.87,
3581,-51.46,
3582,-44.55,
3583,-34.68,
3584,-24.4,
3585,-15.48,
3586,-9.4,
3587,-5.95,
3588,-4.92,
3589,-4.77,
3590,-4.28,
3591,-1.62,
3592,4.39,
3593,13.65,
3594,24.93,
3595,35.01,
3596,40.98,
3597,40.08,
3598,32.11,
3599,18.02,
3600,0.26,
3601,-18.44,
3602,-35.95,
3603,-50.05,
3604,-59.95,
3605,-64.86,
3606,-65.67,
3607,-63.45,
3608,-60.23,
3609,-57.84,
3610,-57.22,
3611,-58.69,
3612,-60.64,
3613,-61.55,
3614,-59.16,
3615,-52.57,
3616,-41.12,
3617,-25.37,
3618,-6.9,
3619,12.18,
3620,28.55,
3621,39.79,
3622,43.86,
3623,41.17,
3624,33.13,
3625,22.36,
3626,11.44,
3627,1.87,
3628,-5.22,
3629,-10.33,
3630,-13.75,
3631,-16.72,
3632,-19.86,
3633,-24.18,
3634,-30.19,
3635,-37.54,
3636,-45.34,
3637,-51.08,
3638,-52.7,
3639,-47.93,
3640,-36.61,
3641,-19.31,
3642,1.96,
3643,24.55,
3644,45.98,
3645,63.28,
3646,74.79,
3647,79.24,
3648,77.49,
3649,71.05,
3650,62.62,
3651,54.68,
3652,48.64,
3653,45.11,
3654,42.79,
3655,40.43,
3656,36.07,
3657,28.94,
3658,18.35,
3659,4.52,
3660,-11.38,
3661,-27.67,
3662,-41.22,
3663,-49.55,
3664,-50.29,
3665,-43.53,
3666,-30.39,
3667,-13.5,
3668,4.24,
3669,20.52,
3670,33.02,
3671,41.0,
3672,43.78,
3673,42.47,
3674,38.43,
3675,34.09,
3676,31.5,
3677,31.54,
3678,33.99,
3679,36.43,
3680,36.6,
3681,32.0,
3682,22.17,
3683,7.43,
3684,-10.59,
3685,-29.6,
3686,-47.35,
3687,-60.81,
3688,-68.05,
3689,-67.38,
3690,-59.42,
3691,-45.61,
3692,-28.77,
3693,-11.82,
3694,3.08,
3695,14.03,
3696,20.92,
3697,23.8,
3698,24.24,
3699,23.72,
3700,24.51,
3701,28.23,
3702,35.13,
3703,44.2,
3704,52.19,
3705,56.11,
3706,53.11,
3707,42.95,
3708,26.57,
3709,6.37,
3710,-14.9,
3711,-35.05,
3712,-51.62,
3713,-63.36,
3714,-69.06,
3715,-69.35,
3716,-65.38,
3717,-59.56,
3718,-54.33,
3719,-51.26,
3720,-51.26,
3721,-53.16,
3722,-55.62,
3723,-56.26,
3724,-53.66,
3725,-46.34,
3726,-33.96,
3727,-17.49,
3728,1.09,
3729,18.02,
3730,30.13,
3731,34.61,
3732,31.48,
3733,22.1,
3734,9.29,
3735,-4.03,
3736,-15.94,
3737,-24.72,
3738,-30.21,
3739,-32.13,
3740,-31.53,
3741,-29.46,
3742,-27.88,
3743,-28.49,
3744,-31.91,
3745,-37.76,
3746,-43.49,
3747,-46.55,
3748,-44.12,
3749,-35.38,
3750,-20.45,
3751,-0.88,
3752,20.95,
3753,42.62,
3754,60.95,
3755,73.88,
3756,79.66,
3757,78.81,
3758,72.74,
3759,64.19,
3760,55.81,
3761,49.19,
3762,45.23,
3763,42.81,
3764,40.88,
3765,37.53,
3766,31.86,
3767,22.93,
3768,10.63,
3769,-4.06,
3770,-19.57,
3771,-32.69,
3772,-40.77,
3773,-41.3,
3774,-34.24,
3775,-20.67,
3776,-3.16,
3777,15.35,
3778,32.54,
3779,46.01,
3780,54.9,
3781,58.48,
3782,57.79,
3783,54.19,
3784,50.14,
3785,47.76,
3786,47.95,
3787,50.54,
3788,53.13,
3789,53.43,
3790,48.89,
3791,38.97,
3792,23.89,
3793,5.1,
3794,-15.14,
3795,-34.63,
3796,-50.23,
3797,-59.84,
3798,-61.56,
3799,-55.86,
3800,-44.12,
3801,-29.18,
3802,-14.02,
3803,-0.84,
3804,8.47,
3805,13.81,
3806,15.28,
3807,14.49,
3808,12.92,
3809,12.78,
3810,15.69,
3811,21.87,
3812,30.38,
3813,38.01,
3814,41.86,
3815,39.08,
3816,29.38,
3817,13.66,
3818,-5.75,
3819,-26.08,
3820,-45.09,
3821,-60.27,
3822,-70.38,
3823,-74.28,
3824,-72.71,
3825,-66.92,
3826,-59.36,
3827,-52.46,
3828,-47.69,
3829,-45.84,
3830,-45.66,
3831,-45.82,
3832,-44.05,
3833,-39.15,
3834,-29.99,
3835,-16.49,
3836,0.18,
3837,18.08,
3838,33.62,
3839,43.9,
3840,46.4,
3841,41.28,
3842,29.97,
3843,15.35,
3844,0.38,
3845,-12.96,
3846,-22.93,
3847,-29.43,
3848,-32.23,
3849,-32.48,
3850,-31.17,
3851,-30.13,
3852,-30.88,
3853,-33.97,
3854,-39.16,
3855,-44.21,
3856,-47.0,
3857,-44.93,
3858,-37.27,
3859,-23.9,
3860,-6.11,
3861,13.93,
3862,33.89,
3863,50.54,
3864,61.75,
3865,65.73,
3866,63.03,
3867,55.08,
3868,44.56,
3869,34.07,
3870,25.19,
3871,18.97,
3872,14.67,
3873,11.62,
3874,8.24,
3875,3.7,
3876,-3.09,
3877,-12.54,
3878,-24.11,
3879,-36.61,
3880,-47.22,
3881,-53.51,
3882,-53.01,
3883,-45.46,
3884,-31.52,
3885,-13.29,
3886,6.57,
3887,25.74,
3888,41.59,
3889,52.86,
3890,58.5,
3891,59.39,
3892,56.83,
3893,53.2,
3894,50.59,
3895,49.96,
3896,51.41,
3897,53.02,
3898,53.07,
3899,49.38,
3900,41.37,
3901,28.84,
3902,12.73,
3903,-5.2,
3904,-22.94,
3905,-37.33,
3906,-46.13,
3907,-47.32,
3908,-41.25,
3909,-29.22,
3910,-13.89,
3911,1.93,
3912,16.13,
3913,26.73,
3914,33.36,
3915,35.67,
3916,34.9,
3917,32.25,
3918,29.85,
3919,29.35,
3920,31.24,
3921,34.99,
3922,38.01,
3923,37.98,
3924,32.46,
3925,21.21,
3926,4.84,
3927,-14.67,
3928,-34.78,
3929,-53.22,
3930,-67.16,
3931,-75.03,
3932,-75.46,
3933,-69.23,
3934,-57.73,
3935,-43.59,
3936,-29.4,
3937,-17.0,
3938,-7.94,
3939,-1.97,
3940,1.19,
3941,3.15,
3942,5.17,
3943,9.03,
3944,15.82,
3945,25.34,
3946,36.36,
3947,45.67,
3948,50.49,
3949,48.22,
3950,38.86,
3951,23.53,
3952,4.83,
3953,-14.4,
3954,-31.94,
3955,-45.48,
3956,-54.05,
3957,-56.76,
3958,-54.49,
3959,-48.49,
3960,-41.15,
3961,-34.78,
3962,-30.73,
3963,-29.68,
3964,-30.26,
3965,-31.04,
3966,-29.69,
3967,-25.11,
3968,-16.26,
3969,-3.29,
3970,12.56,
3971,29.29,
3972,43.37,
3973,52.03,
3974,52.83,
3975,46.01,
3976,33.01,
3977,16.71,
3978,0.08,
3979,-14.84,
3980,-26.24,
3981,-33.87,
3982,-37.45,
3983,-38.07,
3984,-36.79,
3985,-35.5,
3986,-35.84,
3987,-38.5,
3988,-43.36,
3989,-48.35,
3990,-51.43,
3991,-50.04,
3992,-43.35,
3993,-31.03,
3994,-14.15,
3995,5.35,
3996,25.17,
3997,41.97,
3998,53.46,
3999,57.62,
4000,54.88,
4001,46.61,
4002,35.5,
4003,24.23,
4004,14.49,
4005,7.6,
4006,3.1,
4007,0.67,
4008,-1.14,
4009,-3.2,
4010,-6.87,
4011,-12.93,
4012,-21.21,
4013,-30.84,
4014,-39.16,
4015,-43.86,
4016,-42.44,
4017,-34.49,
4018,-20.44,
4019,-2.17,
4020,17.83,
4021,37.22,
4022,53.09,
4023,63.88,
4024,68.24,
4025,66.94,
4026,61.4,
4027,54.21,
4028,47.77,
4029,43.34,
4030,41.37,
4031,40.3,
4032,38.72,
4033,34.53,
4034,27.05,
4035,15.77,
4036,1.16,
4037,-15.35,
4038,-31.92,
4039,-45.35,
4040,-53.16,
4041,-53.05,
4042,-45.23,
4043,-31.03,
4044,-13.22,
4045,5.16,
4046,21.75,
4047,34.31,
4048,42.21,
4049,44.97,
4050,43.81,
4051,40.13,
4052,36.35,
4053,34.52,
4054,35.39,
4055,38.53,
4056,41.29,
4057,41.15,
4058,35.53,
4059,24.11,
4060,7.51,
4061,-12.28,
4062,-32.7,
4063,-51.39,
4064,-65.41,
4065,-72.95,
4066,-72.43,
4067,-64.49,
4068,-50.64,
4069,-33.77,
4070,-16.93,
4071,-2.37,
4072,8.07,
4073,14.42,
4074,16.99,
4075,17.58,
4076,17.72,
4077,19.6,
4078,24.66,
4079,32.92,
4080,43.19,
4081,52.07,
4082,56.51,
4083,53.65,
4084,43.37,
4085,26.82,
4086,6.64,
4087,-14.28,
4088,-33.69,
4089,-49.22,
4090,-59.83,
4091,-64.5,
4092,-64.0,
4093,-59.54,
4094,-53.54,
4095,-48.39,
4096,-45.55,
4097,-45.66,
4098,-47.29,
4099,-48.85,
4100,-47.92,
4101,-43.32,
4102,-34.05,
4103,-20.26,
4104,-3.27,
4105,14.91,
4106,30.74,
4107,41.43,
4108,44.48,
4109,40.03,
4110,29.41,
4111,15.36,
4112,0.74,
4113,-12.44,
4114,-22.33,
4115,-28.6,
4116,-30.87,
4117,-30.22,
4118,-27.7,
4119,-25.34,
4120,-24.85,
4121,-27.01,
4122,-31.74,
4123,-36.94,
4124,-40.51,
4125,-39.83,
4126,-33.96,
4127,-22.5,
4128,-6.38,
4129,12.48,
4130,31.8,
4131,48.19,
4132,59.26,
4133,62.95,
4134,59.69,
4135,50.9,
4136,39.37,
4137,27.83,
4138,17.97,
4139,10.95,
4140,6.18,
4141,3.11,
4142,0.23,
4143,-3.35,
4144,-8.91,
4145,-17.08,
4146,-27.52,
4147,-39.1,
4148,-48.91,
4149,-54.4,
4150,-52.99,
4151,-44.37,
4152,-29.31,
4153,-10.02,
4154,10.74,
4155,30.57,
4156,46.75,
4157,57.96,
4158,63.1,
4159,63.01,
4160,59.06,
4161,53.78,
4162,49.49,
4163,47.33,
4164,47.55,
4165,48.31,
4166,47.86,
4167,43.96,
4168,35.98,
4169,23.66,
4170,7.88,
4171,-9.66,
4172,-26.96,
4173,-40.89,
4174,-49.1,
4175,-49.45,
4176,-42.22,
4177,-28.68,
4178,-11.54,
4179,6.2,
4180,22.23,
4181,34.27,
4182,41.71,
4183,44.05,
4184,42.54,
4185,38.6,
4186,34.67,
4187,32.75,
4188,33.61,
4189,36.82,
4190,39.79,
4191,40.02,
4192,34.94,
4193,24.18,
4194,8.21,
4195,-11.11,
4196,-31.32,
4197,-50.11,
4198,-64.48,
4199,-72.57,
4200,-72.71,
4201,-65.52,
4202,-52.49,
4203,-36.49,
4204,-20.5,
4205,-6.71,
4206,3.14,
4207,9.15,
4208,11.63,
4209,12.26,
4210,12.44,
4211,14.15,
4212,18.7,
4213,26.1,
4214,35.28,
4215,43.13,
4216,46.84,
4217,43.76,
4218,33.76,
4219,17.88,
4220,-1.42,
4221,-21.26,
4222,-39.35,
4223,-53.16,
4224,-61.48,
4225,-63.25,
4226,-59.3,
4227,-51.04,
4228,-41.07,
4229,-31.98,
4230,-25.39,
4231,-22.22,
4232,-21.26,
4233,-21.23,
4234,-19.84,
4235,-15.85,
4236,-8.03,
4237,3.76,
4238,18.41,
4239,34.04,
4240,47.04,
4241,54.52,
4242,53.96,
4243,45.61,
4244,31.0,
4245,13.12,
4246,-4.96,
4247,-21.18,
4248,-33.73,
4249,-42.44,
4250,-47.03,
4251,-48.59,
4252,-48.14,
4253,-47.52,
4254,-48.35,
4255,-51.3,
4256,-56.3,
4257,-61.2,
4258,-63.94,
4259,-61.93,
4260,-54.31,
4261,-40.83,
4262,-22.63,
4263,-1.78,
4264,19.37,
4265,37.51,
4266,50.4,
4267,56.09,
4268,55.07,
4269,48.71,
4270,39.7,
4271,30.63,
4272,23.05,
4273,18.0,
4274,14.76,
4275,12.69,
4276,10.24,
4277,6.57,
4278,0.59,
4279,-8.18,
4280,-19.18,
4281,-31.22,
4282,-41.37,
4283,-47.13,
4284,-45.95,
4285,-37.55,
4286,-22.67,
4287,-3.49,
4288,17.27,
4289,37.24,
4290,53.74,
4291,65.49,
4292,71.44,
4293,72.43,
4294,69.84,
4295,66.13,
4296,63.55,
4297,63.09,
4298,64.77,
4299,66.47,
4300,66.22,
4301,61.62,
4302,52.09,
4303,37.57,
4304,19.17,
4305,-1.13,
4306,-21.17,
4307,-37.72,
4308,-48.43,
4309,-51.25,
4310,-46.52,
4311,-35.68,
4312,-21.59,
4313,-7.29,
4314,5.08,
4315,13.68,
4316,18.49,
4317,19.61,
4318,18.56,
4319,16.69,
4320,16.07,
4321,18.19,
4322,23.29,
4323,30.49,
4324,36.77,
4325,39.36,
4326,35.59,
4327,25.22,
4328,9.14,
4329,-10.32,
4330,-30.38,
4331,-48.72,
4332,-62.67,
4333,-70.86,
4334,-72.07,
4335,-67.1,
4336,-57.33,
4337,-45.4,
4338,-33.98,
4339,-24.85,
4340,-19.22,
4341,-16.32,
4342,-15.21,
4343,-13.79,
4344,-10.72,
4345,-4.46,
4346,5.62,
4347,18.8,
4348,33.42,
4349,45.94,
4350,53.39,
4351,53.12,
4352,45.17,
4353,30.87,
4354,13.03,
4355,-5.4,
4356,-22.34,
4357,-35.81,
4358,-45.35,
4359,-50.44,
4360,-52.05,
4361,-51.22,
4362,-49.96,
4363,-50.05,
4364,-52.29,
4365,-56.69,
4366,-61.2,
4367,-63.81,
4368,-61.98,
4369,-54.88,
4370,-42.22,
4371,-25.04,
4372,-5.32,
4373,14.7,
4374,31.75,
4375,43.59,
4376,48.24,
4377,46.13,
4378,38.58,
4379,28.21,
4380,17.57,
4381,8.31,
4382,1.67,
4383,-2.8,
4384,-5.4,
4385,-7.49,
4386,-9.8,
4387,-13.47,
4388,-19.08,
4389,-26.36,
4390,-34.47,
4391,-41.01,
4392,-43.93,
4393,-40.97,
4394,-31.8,
4395,-16.78,
4396,2.38,
4397,23.23,
4398,43.38,
4399,59.73,
4400,70.5,
4401,74.22,
4402,71.66,
4403,64.31,
4404,54.92,
4405,46.0,
4406,39.0,
4407,34.66,
4408,31.79,
4409,29.3,
4410,25.32,
4411,19.1,
4412,9.86,
4413,-2.33,
4414,-16.52,
4415,-31.24,
4416,-43.54,
4417,-51.04,
4418,-51.37,
4419,-44.47,
4420,-31.22,
4421,-13.99,
4422,4.44,
4423,21.79,
4424,35.65,
4425,45.12,
4426,49.47,
4427,49.72,
4428,47.19,
4429,44.15,
4430,42.54,
4431,43.1,
4432,45.67,
4433,48.01,
4434,48.08,
4435,43.57,
4436,34.01,
4437,19.55,
4438,1.57,
4439,-17.79,
4440,-36.36,
4441,-51.03,
4442,-59.75,
4443,-60.7,
4444,-54.4,
4445,-42.26,
4446,-27.03,
4447,-11.58,
4448,2.01,
4449,11.88,
4450,17.92,
4451,20.1,
4452,19.88,
4453,18.62,
4454,18.41,
4455,20.8,
4456,26.09,
4457,33.46,
4458,40.04,
4459,43.18,
4460,40.27,
4461,31.03,
4462,16.22,
4463,-2.02,
4464,-21.06,
4465,-38.72,
4466,-52.47,
4467,-61.11,
4468,-63.53,
4469,-60.51,
4470,-53.29,
4471,-44.17,
4472,-35.37,
4473,-28.32,
4474,-24.02,
4475,-21.65,
4476,-20.42,
4477,-18.43,
4478,-14.55,
4479,-7.42,
4480,3.37,
4481,17.01,
4482,31.76,
4483,44.18,
4484,51.48,
4485,51.19,
4486,43.53,
4487,29.85,
4488,12.85,
4489,-4.71,
4490,-20.91,
4491,-33.91,
4492,-43.27,
4493,-48.46,
4494,-50.37,
4495,-49.96,
4496,-49.15,
4497,-49.66,
4498,-52.26,
4499,-56.94,
4500,-61.62,
4501,-64.3,
4502,-62.44,
4503,-55.19,
4504,-42.24,
4505,-24.59,
4506,-4.22,
4507,16.59,
4508,34.5,
4509,47.19,
4510,52.64,
4511,51.26,
4512,44.43,
4513,34.87,
4514,25.22,
4515,17.08,
4516,11.53,
4517,7.85,
4518,5.46,
4519,2.81,
4520,-0.87,
4521,-6.66,
4522,-15.0,
4523,-25.38,
4524,-36.71,
4525,-46.18,
4526,-51.42,
4527,-49.91,
4528,-41.34,
4529,-26.33,
4530,-6.93,
4531,14.18,
4532,34.6,
4533,51.52,
4534,63.5,
4535,69.36,
4536,69.93,
4537,66.6,
4538,61.92,
4539,58.19,
4540,56.49,
4541,57.06,
4542,58.03,
4543,57.68,
4544,53.78,
4545,45.65,
4546,32.99,
4547,16.57,
4548,-1.89,
4549,-20.34,
4550,-35.45,
4551,-44.74,
4552,-45.97,
4553,-39.48,
4554,-26.69,
4555,-10.52,
4556,6.0,
4557,20.58,
4558,31.19,
4559,37.43,
4560,39.01,
4561,37.22,
4562,33.4,
4563,29.91,
4564,28.64,
4565,30.24,
4566,34.16,
4567,37.52,
4568,37.66,
4569,31.87,
4570,19.85,
4571,2.37,
4572,-18.32,
4573,-39.45,
4574,-58.57,
4575,-72.78,
4576,-80.46,
4577,-80.21,
4578,-72.82,
4579,-59.91,
4580,-44.37,
4581,-29.16,
4582,-16.38,
4583,-7.5,
4584,-2.04,
4585,0.67,
4586,2.54,
4587,4.92,
4588,9.54,
4589,17.29,
4590,27.74,
4591,39.44,
4592,48.96,
4593,53.41,
4594,50.2,
4595,39.5,
4596,22.75,
4597,2.85,
4598,-17.12,
4599,-34.92,
4600,-48.32,
4601,-56.53,
4602,-58.75,
4603,-55.88,
4604,-49.14,
4605,-40.9,
4606,-33.54,
4607,-28.64,
4608,-27.14,
4609,-27.95,
4610,-29.76,
4611,-30.18,
4612,-27.74,
4613,-20.94,
4614,-9.39,
4615,5.9,
4616,22.93,
4617,37.94,
4618,47.77,
4619,49.72,
4620,43.93,
4621,31.87,
4622,16.44,
4623,0.58,
4624,-13.7,
4625,-24.54,
4626,-31.56,
4627,-34.27,
4628,-33.61,
4629,-30.66,
4630,-27.56,
4631,-26.29,
4632,-27.79,
4633,-32.12,
4634,-37.14,
4635,-40.67,
4636,-40.01,
4637,-34.25,
4638,-23.06,
4639,-7.45,
4640,10.61,
4641,28.93,
4642,44.17,
4643,54.01,
4644,56.38,
4645,51.58,
4646,40.92,
4647,27.01,
4648,12.62,
4649,-0.29,
4650,-9.96,
4651,-16.23,
4652,-18.95,
4653,-19.35,
4654,-18.5,
4655,-18.16,
4656,-19.72,
4657,-23.58,
4658,-29.43,
4659,-35.07,
4660,-38.52,
4661,-37.36,
4662,-30.91,
4663,-19.01,
4664,-2.79,
4665,15.74,
4666,34.32,
4667,49.67,
4668,59.53,
4669,61.97,
4670,57.46,
4671,47.4,
4672,34.53,
4673,21.58,
4674,10.28,
4675,1.99,
4676,-3.68,
4677,-7.07,
4678,-9.56,
4679,-12.05,
4680,-15.87,
4681,-21.83,
4682,-29.78,
4683,-38.89,
4684,-46.6,
4685,-50.62,
4686,-48.48,
4687,-39.82,
4688,-25.07,
4689,-6.11,
4690,14.5,
4691,34.35,
4692,50.43,
4693,61.08,
4694,64.88,
4695,62.6,
4696,55.76,
4697,47.06,
4698,39.04,
4699,33.11,
4700,29.84,
4701,27.82,
4702,25.72,
4703,21.54,
4704,14.58,
4705,4.28,
4706,-8.99,
4707,-23.91,
4708,-38.77,
4709,-50.46,
4710,-56.56,
4711,-54.81,
4712,-45.39,
4713,-29.53,
4714,-9.92,
4715,10.42,
4716,29.1,
4717,43.73,
4718,53.47,
4719,57.63,
4720,57.3,
4721,53.85,
4722,49.71,
4723,47.02,
4724,46.72,
4725,48.79,
4726,51.07,
4727,51.47,
4728,47.54,
4729,38.68,
4730,24.88,
4731,7.38,
4732,-11.74,
4733,-30.28,
4734,-44.99,
4735,-53.6,
4736,-54.11,
4737,-46.96,
4738,-33.61,
4739,-16.92,
4740,0.07,
4741,15.07,
4742,25.99,
4743,32.4,
4744,34.0,
4745,32.11,
4746,28.13,
4747,24.46,
4748,23.01,
4749,24.43,
4750,28.2,
4751,31.59,
4752,32.05,
4753,27.04,
4754,16.32,
4755,0.61,
4756,-18.04,
4757,-37.01,
4758,-54.04,
4759,-66.23,
4760,-71.87,
4761,-69.39,
4762,-59.44,
4763,-43.41,
4764,-24.09,
4765,-4.49,
4766,12.97,
4767,26.01,
4768,34.1,
4769,36.99,
4770,36.15,
4771,33.14,
4772,30.46,
4773,30.05,
4774,32.42,
4775,36.9,
4776,40.56,
4777,40.72,
4778,34.8,
4779,22.62,
4780,5.08,
4781,-15.58,
4782,-36.63,
4783,-55.77,
4784,-70.18,
4785,-78.27,
4786,-78.62,
4787,-71.9,
4788,-59.58,
4789,-44.46,
4790,-29.46,
4791,-16.66,
4792,-7.66,
4793,-2.08,
4794,0.62,
4795,2.3,
4796,4.26,
4797,8.25,
4798,15.18,
4799,24.73,
4800,35.6,
4801,44.58,
4802,48.92,
4803,46.09,
4804,36.11,
4805,20.19,
4806,0.93,
4807,-18.71,
4808,-36.47,
4809,-49.93,
4810,-58.08,
4811,-59.98,
4812,-56.53,
4813,-49.07,
4814,-40.08,
4815,-32.04,
4816,-26.49,
4817,-24.3,
4818,-24.29,
4819,-25.16,
4820,-24.61,
4821,-21.32,
4822,-14.0,
4823,-2.37,
4824,12.5,
4825,28.7,
4826,42.57,
4827,51.1,
4828,51.65,
4829,44.38,
4830,30.75,
4831,13.67,
4832,-3.83,
4833,-19.63,
4834,-31.8,
4835,-39.85,
4836,-43.3,
4837,-43.18,
4838,-40.63,
4839,-37.9,
4840,-36.99,
4841,-38.85,
4842,-43.47,
4843,-48.65,
4844,-52.14,
4845,-51.26,
4846,-45.1,
4847,-33.41,
4848,-17.22,
4849,1.48,
4850,20.5,
4851,36.63,
4852,47.54,
4853,51.17,
4854,47.8,
4855,38.6,
4856,26.1,
4857,12.98,
4858,1.12,
4859,-7.69,
4860,-13.28,
4861,-15.5,
4862,-15.54,
4863,-14.45,
4864,-14.02,
4865,-15.63,
4866,-19.67,
4867,-25.78,
4868,-31.77,
4869,-35.58,
4870,-34.7,
4871,-28.38,
4872,-16.39,
4873,0.19,
4874,19.4,
4875,38.96,
4876,55.53,
4877,66.82,
4878,70.84,
4879,68.05,
4880,59.86,
4881,49.03,
4882,38.25,
4883,29.15,
4884,22.8,
4885,18.48,
4886,15.55,
4887,12.41,
4888,8.21,
4889,1.78,
4890,-7.41,
4891,-18.92,
4892,-31.6,
4893,-42.54,
4894,-49.23,
4895,-49.04,
4896,-41.64,
4897,-27.69,
4898,-9.35,
4899,10.68,
4900,30.02,
4901,45.98,
4902,57.25,
4903,62.72,
4904,63.27,
4905,60.24,
4906,56.18,
4907,53.32,
4908,52.73,
4909,54.47,
4910,56.5,
4911,56.92,
4912,53.36,
4913,45.2,
4914,32.24,
4915,15.45,
4916,-3.31,
4917,-21.96,
4918,-37.2,
4919,-46.64,
4920,-48.09,
4921,-41.87,
4922,-29.36,
4923,-13.38,
4924,3.04,
4925,17.62,
4926,28.24,
4927,34.44,
4928,35.86,
4929,33.79,
4930,29.63,
4931,25.75,
4932,24.13,
4933,25.47,
4934,29.32,
4935,32.96,
4936,33.84,
4937,29.29,
4938,18.93,
4939,3.26,
4940,-15.77,
4941,-35.63,
4942,-53.96,
4943,-67.78,
4944,-75.23,
4945,-74.69,
4946,-66.8,
4947,-53.04,
4948,-36.28,
4949,-19.52,
4950,-4.97,
4951,5.53,
4952,12.0,
4953,14.61,
4954,15.04,
4955,14.69,
4956,15.66,
4957,19.34,
4958,25.8,
4959,33.98,
4960,40.72,
4961,43.2,
4962,38.83,
4963,27.59,
4964,10.67,
4965,-9.32,
4966,-29.45,
4967,-47.41,
4968,-60.65,
4969,-68.0,
4970,-68.36,
4971,-62.56,
4972,-51.96,
4973,-39.19,
4974,-26.9,
4975,-16.97,
4976,-10.71,
4977,-7.46,
4978,-6.36,
4979,-5.34,
4980,-3.03,
4981,2.2,
4982,11.02,
4983,22.84,
4984,36.15,
4985,47.58,
4986,54.32,
4987,53.78,
4988,45.98,
4989,32.07,
4990,14.6,
4991,-3.63,
4992,-20.51,
4993,-33.8,
4994,-42.59,
4995,-46.0,
4996,-44.84,
4997,-40.25,
4998,-34.47,
4999,-29.74,
5000,-27.36,
5001,-28.0,
5002,-30.31,
5003,-32.86,
5004,-33.29,
5005,-30.38,
5006,-22.95,
5007,-10.93,
5008,4.51,
5009,21.42,
5010,36.2,
5011,45.93,
5012,48.02,
5013,42.57,
5014,30.88,
5015,15.67,
5016,-0.19,
5017,-14.65,
5018,-25.73,
5019,-32.91,
5020,-35.6,
5021,-34.79,
5022,-31.58,
5023,-28.11,
5024,-26.36,
5025,-27.29,
5026,-31.06,
5027,-35.75,
5028,-39.41,
5029,-39.49,
5030,-34.99,
5031,-25.29,
5032,-11.02,
5033,6.17,
5034,24.18,
5035,39.59,
5036,49.84,
5037,52.61,
5038,48.09,
5039,37.51,
5040,23.44,
5041,8.65,
5042,-4.81,
5043,-14.96,
5044,-21.28,
5045,-23.28,
5046,-22.04,
5047,-18.76,
5048,-15.6,
5049,-14.47,
5050,-16.23,
5051,-20.86,
5052,-26.31,
5053,-30.53,
5054,-30.97,
5055,-26.68,
5056,-17.16,
5057,-3.13,
5058,13.69,
5059,31.2,
5060,46.06,
5061,55.79,
5062,58.17,
5063,53.44,
5064,42.85,
5065,28.99,
5066,14.61,
5067,1.62,
5068,-8.21,
5069,-14.68,
5070,-17.52,
5071,-17.88,
5072,-16.73,
5073,-15.86,
5074,-16.71,
5075,-19.83,
5076,-25.07,
5077,-30.39,
5078,-33.92,
5079,-33.23,
5080,-27.53,
5081,-16.46,
5082,-0.94,
5083,17.12,
5084,35.45,
5085,50.66,
5086,60.35,
5087,62.49,
5088,57.51,
5089,46.87,
5090,33.36,
5091,19.77,
5092,7.9,
5093,-0.78,
5094,-6.55,
5095,-9.55,
5096,-11.15,
5097,-12.25,
5098,-14.32,
5099,-18.33,
5100,-24.31,
5101,-31.62,
5102,-37.83,
5103,-40.81,
5104,-38.21,
5105,-29.66,
5106,-15.57,
5107,2.31,
5108,21.5,
5109,39.65,
5110,53.71,
5111,61.94,
5112,62.86,
5113,57.23,
5114,46.55,
5115,33.55,
5116,20.91,
5117,10.28,
5118,2.78,
5119,-2.32,
5120,-5.74,
5121,-9.1,
5122,-13.12,
5123,-18.73,
5124,-26.14,
5125,-34.76,
5126,-43.68,
5127,-50.58,
5128,-53.65,
5129,-50.85,
5130,-42.01,
5131,-27.54,
5132,-9.14,
5133,10.79,
5134,29.89,
5135,45.14,
5136,54.81,
5137,57.44,
5138,53.82,
5139,45.45,
5140,35.03,
5141,25.14,
5142,17.31,
5143,12.44,
5144,9.56,
5145,7.77,
5146,5.24,
5147,1.17,
5148,-5.4,
5149,-14.61,
5150,-25.72,
5151,-37.51,
5152,-47.32,
5153,-53.03,
5154,-52.47,
5155,-45.56,
5156,-32.92,
5157,-16.45,
5158,1.47,
5159,18.77,
5160,32.88,
5161,42.39,
5162,45.98,
5163,44.18,
5164,38.04,
5165,29.88,
5166,22.08,
5167,16.2,
5168,13.25,
5169,12.25,
5170,12.06,
5171,10.46,
5172,6.21,
5173,-1.91,
5174,-14.0,
5175,-28.84,
5176,-44.42,
5177,-57.11,
5178,-64.01,
5179,-62.68,
5180,-53.43,
5181,-37.97,
5182,-19.55,
5183,-1.59,
5184,13.58,
5185,24.11,
5186,29.95,
5187,31.44,
5188,30.0,
5189,26.83,
5190,23.4,
5191,20.51,
5192,17.74,
5193,14.08,
5194,7.18,
5195,-3.95,
5196,-19.04,
5197,-34.54,
5198,-45.8,
5199,-48.37,
5200,-39.97,
5201,-22.07,
5202,1.72,
5203,26.03,
5204,46.8,
5205,60.79,
5206,67.14,
5207,66.24,
5208,59.65,
5209,49.98,
5210,39.57,
5211,31.17,
5212,25.74,
5213,23.66,
5214,23.62,
5215,24.45,
5216,25.39,
5217,25.8,
5218,25.17,
5219,21.73,
5220,13.71,
5221,-0.45,
5222,-19.59,
5223,-40.8,
5224,-59.73,
5225,-72.79,
5226,-79.21,
5227,-79.88,
5228,-77.46,
5229,-73.2,
5230,-67.22,
5231,-57.7,
5232,-42.98,
5233,-22.82,
5234,0.86,
5235,23.78,
5236,42.25,
5237,53.46,
5238,58.0,
5239,58.25,
5240,58.14,
5241,60.52,
5242,65.55,
5243,71.14,
5244,72.76,
5245,67.01,
5246,52.04,
5247,29.77,
5248,3.84,
5249,-21.42,
5250,-42.63,
5251,-58.52,
5252,-68.38,
5253,-72.58,
5254,-70.54,
5255,-62.46,
5256,-48.31,
5257,-29.44,
5258,-8.39,
5259,11.87,
5260,27.74,
5261,37.5,
5262,40.35,
5263,38.01,
5264,32.74,
5265,27.71,
5266,25.15,
5267,25.65,
5268,28.77,
5269,32.15,
5270,33.89,
5271,31.95,
5272,26.03,
5273,16.1,
5274,2.96,
5275,-12.02,
5276,-27.4,
5277,-40.54,
5278,-49.41,
5279,-51.85,
5280,-47.71,
5281,-37.61,
5282,-23.51,
5283,-7.85,
5284,7.25,
5285,19.32,
5286,27.25,
5287,30.08,
5288,28.67,
5289,24.35,
5290,19.55,
5291,16.44,
5292,16.01,
5293,18.29,
5294,21.13,
5295,22.49,
5296,19.94,
5297,12.83,
5298,1.04,
5299,-14.34,
5300,-31.33,
5301,-47.79,
5302,-60.5,
5303,-67.18,
5304,-65.82,
5305,-56.83,
5306,-41.66,
5307,-23.13,
5308,-4.31,
5309,12.51,
5310,25.13,
5311,33.08,
5312,35.95,
5313,34.99,
5314,31.59,
5315,28.04,
5316,26.25,
5317,26.94,
5318,29.79,
5319,32.32,
5320,32.24,
5321,27.13,
5322,16.67,
5323,1.38,
5324,-16.98,
5325,-35.92,
5326,-53.16,
5327,-65.65,
5328,-71.49,
5329,-69.01,
5330,-58.84,
5331,-42.53,
5332,-22.98,
5333,-3.32,
5334,14.02,
5335,26.79,
5336,34.48,
5337,36.8,
5338,35.18,
5339,31.17,
5340,27.24,
5341,25.37,
5342,26.17,
5343,29.13,
5344,31.52,
5345,30.88,
5346,24.79,
5347,13.16,
5348,-3.16,
5349,-22.05,
5350,-40.89,
5351,-57.49,
5352,-69.05,
5353,-73.94,
5354,-70.65,
5355,-59.81,
5356,-42.79,
5357,-22.35,
5358,-1.56,
5359,17.03,
5360,30.93,
5361,39.4,
5362,42.01,
5363,40.22,
5364,35.75,
5365,31.34,
5366,29.18,
5367,30.02,
5368,33.28,
5369,36.06,
5370,35.66,
5371,29.46,
5372,17.31,
5373,0.11,
5374,-19.82,
5375,-39.74,
5376,-57.27,
5377,-69.63,
5378,-75.3,
5379,-72.95,
5380,-63.42,
5381,-48.36,
5382,-30.73,
5383,-13.53,
5384,1.2,
5385,12.05,
5386,19.57,
5387,24.45,
5388,28.39,
5389,32.3,
5390,37.29,
5391,43.77,
5392,51.26,
5393,58.88,
5394,64.24,
5395,65.51,
5396,60.67,
5397,49.72,
5398,33.28,
5399,13.27,
5400,-7.77,
5401,-27.49,
5402,-42.91,
5403,-52.36,
5404,-54.45,
5405,-49.97,
5406,-40.36,
5407,-28.33,
5408,-16.56,
5409,-6.95,
5410,-1.18,
5411,0.79,
5412,-0.82,
5413,-4.22,
5414,-7.65,
5415,-8.47,
5416,-4.79,
5417,3.76,
5418,15.94,
5419,28.02,
5420,36.47,
5421,38.09,
5422,32.59,
5423,21.1,
5424,6.24,
5425,-9.22,
5426,-23.35,
5427,-34.1,
5428,-40.65,
5429,-41.96,
5430,-38.61,
5431,-31.54,
5432,-22.91,
5433,-15.05,
5434,-9.59,
5435,-7.56,
5436,-7.95,
5437,-9.53,
5438,-9.95,
5439,-7.81,
5440,-1.71,
5441,8.61,
5442,22.11,
5443,36.95,
5444,49.6,
5445,57.26,
5446,57.4,
5447,50.12,
5448,36.6,
5449,19.42,
5450,1.38,
5451,-15.48,
5452,-28.97,
5453,-38.3,
5454,-42.69,
5455,-42.99,
5456,-40.28,
5457,-36.71,
5458,-34.31,
5459,-34.2,
5460,-36.83,
5461,-40.68,
5462,-44.22,
5463,-45.08,
5464,-42.11,
5465,-34.29,
5466,-21.69,
5467,-5.53,
5468,12.25,
5469,28.17,
5470,39.41,
5471,43.41,
5472,40.18,
5473,30.84,
5474,17.87,
5475,3.99,
5476,-8.87,
5477,-18.68,
5478,-24.88,
5479,-26.8,
5480,-25.37,
5481,-21.64,
5482,-17.74,
5483,-15.58,
5484,-16.2,
5485,-19.84,
5486,-24.75,
5487,-29.14,
5488,-30.48,
5489,-27.64,
5490,-19.69,
5491,-6.93,
5492,9.18,
5493,26.56,
5494,41.63,
5495,51.59,
5496,53.96,
5497,48.92,
5498,37.75,
5499,23.17,
5500,8.0,
5501,-5.74,
5502,-16.11,
5503,-22.67,
5504,-24.93,
5505,-23.94,
5506,-20.84,
5507,-17.77,
5508,-16.66,
5509,-18.37,
5510,-22.91,
5511,-28.2,
5512,-32.17,
5513,-32.23,
5514,-27.51,
5515,-17.59,
5516,-3.3,
5517,13.55,
5518,30.84,
5519,45.24,
5520,54.36,
5521,56.0,
5522,50.42,
5523,38.83,
5524,23.76,
5525,7.99,
5526,-6.47,
5527,-17.55,
5528,-24.69,
5529,-27.39,
5530,-26.69,
5531,-23.8,
5532,-20.87,
5533,-19.84,
5534,-21.61,
5535,-26.32,
5536,-32.08,
5537,-37.02,
5538,-38.62,
5539,-35.8,
5540,-27.77,
5541,-14.89,
5542,1.34,
5543,18.9,
5544,34.3,
5545,44.82,
5546,47.99,
5547,43.9,
5548,33.72,
5549,20.03,
5550,5.55,
5551,-7.72,
5552,-17.82,
5553,-24.27,
5554,-26.53,
5555,-25.66,
5556,-22.85,
5557,-20.34,
5558,-20.11,
5559,-23.01,
5560,-28.89,
5561,-35.37,
5562,-40.1,
5563,-40.28,
5564,-35.02,
5565,-24.06,
5566,-8.5,
5567,9.69,
5568,28.32,
5569,44.15,
5570,54.9,
5571,58.48,
5572,55.19,
5573,46.24,
5574,34.19,
5575,21.72,
5576,10.66,
5577,2.53,
5578,-2.88,
5579,-5.71,
5580,-7.38,
5581,-8.83,
5582,-11.61,
5583,-16.69,
5584,-24.01,
5585,-32.74,
5586,-40.2,
5587,-43.96,
5588,-41.4,
5589,-31.98,
5590,-16.0,
5591,4.82,
5592,28.04,
5593,51.27,
5594,71.46,
5595,86.81,
5596,95.76,
5597,98.92,
5598,97.64,
5599,94.57,
5600,92.1,
5601,91.42,
5602,92.83,
5603,94.53,
5604,94.82,
5605,91.45,
5606,83.61,
5607,70.81,
5608,53.57,
5609,33.41,
5610,12.31,
5611,-6.33,
5612,-19.78,
5613,-25.54,
5614,-23.68,
5615,-15.43,
5616,-3.53,
5617,9.04,
5618,20.14,
5619,27.82,
5620,31.77,
5621,31.78,
5622,29.14,
5623,25.2,
5624,22.23,
5625,22.04,
5626,25.12,
5627,30.71,
5628,35.82,
5629,37.59,
5630,33.26,
5631,22.5,
5632,6.08,
5633,-13.84,
5634,-34.55,
5635,-53.74,
5636,-68.55,
5637,-77.28,
5638,-78.37,
5639,-72.35,
5640,-60.45,
5641,-45.27,
5642,-29.65,
5643,-15.84,
5644,-5.94,
5645,-0.26,
5646,1.16,
5647,-0.02,
5648,-2.09,
5649,-2.52,
5650,0.56,
5651,7.45,
5652,17.03,
5653,25.8,
5654,30.57,
5655,28.35,
5656,18.89,
5657,3.2,
5658,-16.26,
5659,-36.72,
5660,-56.06,
5661,-71.81,
5662,-82.75,
5663,-87.61,
5664,-86.94,
5665,-81.86,
5666,-74.75,
5667,-68.1,
5668,-63.55,
5669,-62.07,
5670,-62.56,
5671,-63.73,
5672,-63.2,
5673,-59.57,
5674,-51.4,
5675,-38.36,
5676,-21.44,
5677,-2.62,
5678,14.36,
5679,26.36,
5680,30.61,
5681,27.14,
5682,17.3,
5683,3.88,
5684,-10.2,
5685,-22.97,
5686,-32.6,
5687,-38.77,
5688,-41.06,
5689,-40.46,
5690,-38.06,
5691,-35.89,
5692,-35.81,
5693,-38.64,
5694,-44.35,
5695,-50.77,
5696,-55.76,
5697,-56.55,
5698,-52.11,
5699,-41.85,
5700,-26.5,
5701,-7.8,
5702,12.15,
5703,29.96,
5704,43.1,
5705,49.24,
5706,48.43,
5707,41.69,
5708,31.4,
5709,20.13,
5710,9.76,
5711,2.19,
5712,-2.14,
5713,-2.81,
5714,-0.94,
5715,2.25,
5716,4.55,
5717,4.09,
5718,0.22,
5719,-6.67,
5720,-14.0,
5721,-19.27,
5722,-19.66,
5723,-14.31,
5724,-3.09,
5725,12.79,
5726,31.29,
5727,50.25,
5728,66.49,
5729,77.79,
5730,82.15,
5731,79.84,
5732,72.07,
5733,61.42,
5734,50.56,
5735,41.23,
5736,34.73,
5737,30.54,
5738,28.13,
5739,25.85,
5740,22.67,
5741,17.17,
5742,8.62,
5743,-2.61,
5744,-15.34,
5745,-26.57,
5746,-33.64,
5747,-33.88,
5748,-26.91,
5749,-13.36,
5750,4.65,
5751,24.48,
5752,43.85,
5753,60.11,
5754,72.0,
5755,78.39,
5756,80.09,
5757,78.41,
5758,75.82,
5759,74.51,
5760,75.46,
5761,78.62,
5762,81.8,
5763,82.93,
5764,79.53,
5765,70.92,
5766,56.97,
5767,38.74,
5768,18.11,
5769,-2.79,
5770,-20.73,
5771,-33.27,
5772,-38.17,
5773,-35.6,
5774,-26.77,
5775,-14.39,
5776,-1.38,
5777,10.05,
5778,17.88,
5779,21.8,
5780,21.63,
5781,18.81,
5782,14.85,
5783,12.18,
5784,12.67,
5785,16.65,
5786,23.0,
5787,28.18,
5788,28.93,
5789,22.27,
5790,8.12,
5791,-12.25,
5792,-36.04,
5793,-60.16,
5794,-82.28,
5795,-99.79,
5796,-111.44,
5797,-115.97,
5798,-113.98,
5799,-106.69,
5800,-96.63,
5801,-86.54,
5802,-78.44,
5803,-73.8,
5804,-71.96,
5805,-71.95,
5806,-71.4,
5807,-68.59,
5808,-61.52,
5809,-49.31,
5810,-32.63,
5811,-13.44,
5812,4.22,
5813,16.86,
5814,21.43,
5815,17.98,
5816,8.02,
5817,-5.41,
5818,-19.29,
5819,-31.66,
5820,-40.85,
5821,-46.66,
5822,-48.71,
5823,-48.02,
5824,-45.63,
5825,-43.69,
5826,-44.11,
5827,-47.67,
5828,-53.96,
5829,-60.14,
5830,-63.39,
5831,-60.57,
5832,-50.89,
5833,-34.57,
5834,-13.38,
5835,10.19,
5836,33.75,
5837,54.24,
5838,69.72,
5839,78.36,
5840,80.52,
5841,77.34,
5842,71.34,
5843,65.09,
5844,60.3,
5845,58.08,
5846,57.57,
5847,57.83,
5848,56.83,
5849,53.36,
5850,46.04,
5851,34.46,
5852,19.61,
5853,3.46,
5854,-10.13,
5855,-17.93,
5856,-17.16,
5857,-8.0,
5858,7.89,
5859,27.28,
5860,46.88,
5861,64.38,
5862,77.76,
5863,86.63,
5864,90.61,
5865,90.8,
5866,88.49,
5867,85.96,
5868,85.23,
5869,87.05,
5870,90.89,
5871,93.85,
5872,93.07,
5873,85.69,
5874,71.3,
5875,50.69,
5876,26.08,
5877,0.26,
5878,-24.42,
5879,-45.1,
5880,-60.1,
5881,-67.78,
5882,-68.54,
5883,-63.48,
5884,-55.05,
5885,-45.97,
5886,-38.39,
5887,-34.18,
5888,-33.38,
5889,-35.69,
5890,-39.12,
5891,-41.81,
5892,-41.12,
5893,-35.36,
5894,-24.56,
5895,-10.43,
5896,2.9,
5897,11.63,
5898,12.48,
5899,5.28,
5900,-8.54,
5901,-26.04,
5902,-44.24,
5903,-61.18,
5904,-74.95,
5905,-84.96,
5906,-90.44,
5907,-92.04,
5908,-90.64,
5909,-88.29,
5910,-87.07,
5911,-88.15,
5912,-91.81,
5913,-96.14,
5914,-99.09,
5915,-97.86,
5916,-91.31,
5917,-78.76,
5918,-60.85,
5919,-39.36,
5920,-16.43,
5921,4.46,
5922,20.7,
5923,29.87,
5924,31.99,
5925,28.07,
5926,20.47,
5927,11.77,
5928,3.82,
5929,-1.55,
5930,-4.0,
5931,-3.2,
5932,-0.35,
5933,3.33,
5934,5.67,
5935,4.94,
5936,0.58,
5937,-6.83,
5938,-14.62,
5939,-20.2,
5940,-20.72,
5941,-15.36,
5942,-4.06,
5943,11.87,
5944,30.37,
5945,49.27,
5946,65.44,
5947,76.74,
5948,81.17,
5949,79.04,
5950,71.48,
5951,61.04,
5952,50.29,
5953,40.94,
5954,34.26,
5955,29.74,
5956,26.86,
5957,24.02,
5958,20.25,
5959,14.22,
5960,5.27,
5961,-6.22,
5962,-19.13,
5963,-30.59,
5964,-38.11,
5965,-39.08,
5966,-33.07,
5967,-20.59,
5968,-3.54,
5969,15.58,
5970,34.47,
5971,50.37,
5972,61.79,
5973,67.45,
5974,68.04,
5975,64.84,
5976,60.29,
5977,56.63,
5978,54.99,
5979,55.71,
5980,57.12,
5981,57.68,
5982,55.19,
5983,48.87,
5984,38.17,
5985,23.52,
5986,6.33,
5987,-11.55,
5988,-26.89,
5989,-37.18,
5990,-40.04,
5991,-35.52,
5992,-24.7,
5993,-10.12,
5994,5.42,
5995,19.73,
5996,30.61,
5997,37.41,
5998,39.56,
5999,38.15,
6000,34.5,
6001,30.91,
6002,29.38,
6003,30.66,
6004,34.46,
6005,38.34,
6006,39.97,
6007,36.82,
6008,28.36,
6009,14.8,
6010,-2.33,
6011,-20.77,
6012,-38.26,
6013,-51.65,
6014,-58.83,
6015,-57.92,
6016,-49.43,
6017,-34.79,
6018,-16.84,
6019,1.4,
6020,17.64,
6021,29.74,
6022,37.31,
6023,40.11,
6024,39.53,
6025,37.03,
6026,35.04,
6027,35.46,
6028,38.84,
6029,44.45,
6030,49.31,
6031,50.65,
6032,45.74,
6033,34.32,
6034,17.18,
6035,-3.49,
6036,-25.03,
6037,-45.17,
6038,-61.08,
6039,-71.09,
6040,-73.6,
6041,-69.07,
6042,-58.73,
6043,-45.15,
6044,-31.18,
6045,-19.04,
6046,-10.69,
6047,-6.26,
6048,-5.56,
6049,-6.78,
6050,-8.15,
6051,-7.19,
6052,-2.21,
6053,6.84,
6054,18.46,
6055,28.79,
6056,34.29,
6057,31.83,
6058,21.32,
6059,4.11,
6060,-16.89,
6061,-38.69,
6062,-59.14,
6063,-76.14,
6064,-88.88,
6065,-96.43,
6066,-99.42,
6067,-98.79,
6068,-96.69,
6069,-95.3,
6070,-95.96,
6071,-99.22,
6072,-103.49,
6073,-106.94,
6074,-106.92,
6075,-102.06,
6076,-91.29,
6077,-74.81,
6078,-54.05,
6079,-31.14,
6080,-9.73,
6081,7.25,
6082,17.11,
6083,19.8,
6084,16.36,
6085,9.26,
6086,1.1,
6087,-6.32,
6088,-11.28,
6089,-13.54,
6090,-12.78,
6091,-10.12,
6092,-6.74,
6093,-4.73,
6094,-5.85,
6095,-10.62,
6096,-18.41,
6097,-26.37,
6098,-31.72,
6099,-31.44,
6100,-24.75,
6101,-11.71,
6102,6.17,
6103,26.62,
6104,47.42,
6105,65.5,
6106,78.81,
6107,85.45,
6108,85.7,
6109,80.63,
6110,72.7,
6111,64.38,
6112,57.33,
6113,52.71,
6114,49.87,
6115,48.13,
6116,45.75,
6117,41.73,
6118,34.74,
6119,24.25,
6120,10.83,
6121,-4.17,
6122,-17.67,
6123,-27.03,
6124,-29.6,
6125,-25.04,
6126,-14.02,
6127,1.36,
6128,18.53,
6129,35.27,
6130,48.99,
6131,58.42,
6132,62.45,
6133,61.83,
6134,57.8,
6135,52.71,
6136,48.74,
6137,46.94,
6138,47.55,
6139,48.73,
6140,48.79,
6141,45.43,
6142,37.94,
6143,25.9,
6144,10.03,
6145,-8.05,
6146,-26.33,
6147,-41.5,
6148,-51.06,
6149,-52.74,
6150,-46.76,
6151,-34.44,
6152,-18.57,
6153,-2.18,
6154,12.42,
6155,23.07,
6156,29.22,
6157,30.5,
6158,28.18,
6159,23.69,
6160,19.42,
6161,17.31,
6162,18.02,
6163,21.03,
6164,23.63,
6165,23.34,
6166,17.72,
6167,6.61,
6168,-9.19,
6169,-27.59,
6170,-45.98,
6171,-62.15,
6172,-73.32,
6173,-77.87,
6174,-74.3,
6175,-63.28,
6176,-46.16,
6177,-25.63,
6178,-4.75,
6179,14.04,
6180,28.27,
6181,37.2,
6182,40.39,
6183,39.23,
6184,35.27,
6185,31.05,
6186,28.59,
6187,28.7,
6188,31.2,
6189,33.81,
6190,34.48,
6191,30.86,
6192,22.47,
6193,9.4,
6194,-7.1,
6195,-25.03,
6196,-42.33,
6197,-55.87,
6198,-63.5,
6199,-63.24,
6200,-55.51,
6201,-41.67,
6202,-24.46,
6203,-6.85,
6204,8.85,
6205,20.43,
6206,27.27,
6207,28.91,
6208,26.56,
6209,21.61,
6210,16.48,
6211,13.2,
6212,12.61,
6213,14.56,
6214,16.71,
6215,16.86,
6216,12.61,
6217,3.51,
6218,-10.16,
6219,-26.85,
6220,-44.3,
6221,-60.3,
6222,-71.74,
6223,-76.63,
6224,-73.21,
6225,-62.1,
6226,-44.82,
6227,-24.27,
6228,-3.56,
6229,14.89,
6230,28.74,
6231,37.35,
6232,40.25,
6233,38.71,
6234,34.19,
6235,29.12,
6236,25.6,
6237,24.53,
6238,25.86,
6239,27.43,
6240,27.2,
6241,22.83,
6242,13.84,
6243,0.36,
6244,-16.26,
6245,-33.88,
6246,-50.32,
6247,-62.43,
6248,-68.09,
6249,-65.43,
6250,-55.02,
6251,-38.42,
6252,-18.53,
6253,1.52,
6254,19.33,
6255,32.62,
6256,40.77,
6257,43.31,
6258,41.51,
6259,36.78,
6260,31.55,
6261,27.92,
6262,26.81,
6263,28.09,
6264,29.54,
6265,29.03,
6266,24.17,
6267,14.54,
6268,0.41,
6269,-16.7,
6270,-34.53,
6271,-50.84,
6272,-62.52,
6273,-67.54,
6274,-64.14,
6275,-52.97,
6276,-35.57,
6277,-14.9,
6278,5.91,
6279,24.42,
6280,38.35,
6281,47.07,
6282,50.14,
6283,48.87,
6284,44.67,
6285,40.01,
6286,36.95,
6287,36.38,
6288,38.17,
6289,40.01,
6290,39.75,
6291,34.97,
6292,25.23,
6293,10.77,
6294,-6.92,
6295,-25.6,
6296,-43.04,
6297,-56.12,
6298,-62.8,
6299,-61.23,
6300,-51.98,
6301,-36.56,
6302,-17.84,
6303,1.1,
6304,17.89,
6305,30.27,
6306,37.73,
6307,39.87,
6308,38.03,
6309,33.67,
6310,29.24,
6311,26.73,
6312,26.91,
6313,29.41,
6314,31.69,
6315,31.4,
6316,26.08,
6317,15.45,
6318,0.09,
6319,-18.16,
6320,-36.85,
6321,-53.73,
6322,-65.86,
6323,-71.41,
6324,-68.77,
6325,-58.54,
6326,-42.18,
6327,-22.5,
6328,-2.57,
6329,15.18,
6330,28.42,
6331,36.52,
6332,39.09,
6333,37.5,
6334,33.28,
6335,28.91,
6336,26.42,
6337,26.56,
6338,29.05,
6339,31.41,
6340,31.4,
6341,26.61,
6342,16.74,
6343,2.16,
6344,-15.46,
6345,-33.84,
6346,-50.8,
6347,-63.35,
6348,-69.54,
6349,-67.63,
6350,-58.17,
6351,-42.57,
6352,-23.62,
6353,-4.39,
6354,12.73,
6355,25.42,
6356,33.07,
6357,35.24,
6358,33.27,
6359,28.67,
6360,23.91,
6361,21.05,
6362,20.86,
6363,23.06,
6364,25.2,
6365,25.03,
6366,20.15,
6367,10.26,
6368,-4.19,
6369,-21.51,
6370,-39.35,
6371,-55.52,
6372,-67.06,
6373,-72.08,
6374,-68.9,
6375,-58.13,
6376,-41.21,
6377,-20.95,
6378,-0.43,
6379,17.93,
6380,31.79,
6381,40.43,
6382,43.41,
6383,41.98,
6384,37.62,
6385,32.78,
6386,29.55,
6387,28.85,
6388,30.6,
6389,32.62,
6390,32.86,
6391,28.95,
6392,20.34,
6393,7.11,
6394,-9.5,
6395,-27.4,
6396,-44.41,
6397,-57.37,
6398,-64.06,
6399,-62.58,
6400,-53.43,
6401,-38.1,
6402,-19.48,
6403,-0.65,
6404,16.07,
6405,28.45,
6406,35.96,
6407,38.14,
6408,36.24,
6409,31.67,
6410,26.83,
6411,23.77,
6412,23.31,
6413,25.28,
6414,27.27,
6415,27.07,
6416,22.22,
6417,12.36,
6418,-2.13,
6419,-19.59,
6420,-37.66,
6421,-54.06,
6422,-65.74,
6423,-70.76,
6424,-67.39,
6425,-56.3,
6426,-39.02,
6427,-18.46,
6428,2.25,
6429,20.65,
6430,34.45,
6431,43.03,
6432,46.01,
6433,44.74,
6434,40.71,
6435,36.4,
6436,33.84,
6437,33.86,
6438,36.16,
6439,38.33,
6440,38.1,
6441,33.06,
6442,22.86,
6443,7.9,
6444,-10.15,
6445,-28.96,
6446,-46.32,
6447,-59.26,
6448,-65.82,
6449,-64.27,
6450,-55.18,
6451,-39.97,
6452,-21.42,
6453,-2.57,
6454,14.2,
6455,26.62,
6456,34.08,
6457,36.19,
6458,34.24,
6459,29.73,
6460,25.1,
6461,22.37,
6462,22.32,
6463,24.68,
6464,27.03,
6465,27.12,
6466,22.54,
6467,12.94,
6468,-1.3,
6469,-18.54,
6470,-36.47,
6471,-52.87,
6472,-64.71,
6473,-70.03,
6474,-67.1,
6475,-56.5,
6476,-39.74,
6477,-19.66,
6478,0.62,
6479,18.68,
6480,32.21,
6481,40.62,
6482,43.5,
6483,42.18,
6484,38.17,
6485,33.94,
6486,31.55,
6487,31.77,
6488,34.3,
6489,36.67,
6490,36.56,
6491,31.54,
6492,21.26,
6493,6.18,
6494,-11.99,
6495,-30.88,
6496,-48.3,
6497,-61.27,
6498,-67.89,
6499,-66.45,
6500,-57.52,
6501,-42.49,
6502,-24.13,
6503,-5.46,
6504,11.18,
6505,23.49,
6506,30.85,
6507,32.86,
6508,30.82,
6509,26.21,
6510,21.46,
6511,18.59,
6512,18.41,
6513,20.66,
6514,23.0,
6515,23.23,
6516,18.98,
6517,9.85,
6518,-3.84,
6519,-20.53,
6520,-37.97,
6521,-53.93,
6522,-65.34,
6523,-70.19,
6524,-66.71,
6525,-55.48,
6526,-38.04,
6527,-17.32,
6528,3.55,
6529,22.13,
6530,36.11,
6531,44.89,
6532,48.08,
6533,47.02,
6534,43.2,
6535,39.13,
6536,36.85,
6537,37.16,
6538,39.73,
6539,42.03,
6540,41.71,
6541,36.29,
6542,25.47,
6543,9.77,
6544,-9.02,
6545,-28.5,
6546,-46.44,
6547,-59.92,
6548,-67.1,
6549,-66.29,
6550,-58.07,
6551,-43.78,
6552,-26.14,
6553,-8.12,
6554,7.92,
6555,19.7,
6556,26.59,
6557,28.18,
6558,25.79,
6559,20.88,
6560,15.89,
6561,12.82,
6562,12.46,
6563,14.58,
6564,16.87,
6565,17.19,
6566,13.16,
6567,4.4,
6568,-8.83,
6569,-25.05,
6570,-42.04,
6571,-57.63,
6572,-68.69,
6573,-73.18,
6574,-69.29,
6575,-57.62,
6576,-39.71,
6577,-18.54,
6578,2.74,
6579,21.66,
6580,35.93,
6581,44.91,
6582,48.22,
6583,47.16,
6584,43.25,
6585,38.99,
6586,36.45,
6587,36.47,
6588,38.74,
6589,40.74,
6590,40.16,
6591,34.53,
6592,23.58,
6593,7.85,
6594,-10.84,
6595,-30.05,
6596,-47.57,
6597,-60.47,
6598,-66.94,
6599,-65.34,
6600,-56.26,
6601,-41.08,
6602,-22.55,
6603,-3.67,
6604,13.19,
6605,25.69,
6606,33.18,
6607,35.21,
6608,33.09,
6609,28.3,
6610,23.28,
6611,20.05,
6612,19.46,
6613,21.36,
6614,23.52,
6615,23.87,
6616,20.04,
6617,11.56,
6618,-1.47,
6619,-17.69,
6620,-35.01,
6621,-51.24,
6622,-63.23,
6623,-68.82,
6624,-66.12,
6625,-55.68,
6626,-39.04,
6627,-19.13,
6628,0.93,
6629,18.74,
6630,32.06,
6631,40.33,
6632,43.11,
6633,41.69,
6634,37.51,
6635,33.01,
6636,30.26,
6637,30.07,
6638,32.2,
6639,34.18,
6640,33.68,
6641,28.25,
6642,17.59,
6643,2.17,
6644,-16.2,
6645,-35.08,
6646,-52.22,
6647,-64.62,
6648,-70.42,
6649,-67.96,
6650,-57.87,
6651,-41.65,
6652,-22.12,
6653,-2.38,
6654,15.15,
6655,28.12,
6656,35.95,
6657,38.23,
6658,36.33,
6659,31.79,
6660,27.07,
6661,24.21,
6662,23.96,
6663,26.07,
6664,28.08,
6665,27.78,
6666,22.8,
6667,12.84,
6668,-1.65,
6669,-19.0,
6670,-36.89,
6671,-53.13,
6672,-64.74,
6673,-69.79,
6674,-66.6,
6675,-55.75,
6676,-38.73,
6677,-18.36,
6678,2.24,
6679,20.63,
6680,34.46,
6681,43.07,
6682,46.03,
6683,44.65,
6684,40.44,
6685,35.91,
6686,33.1,
6687,32.87,
6688,35.01,
6689,37.13,
6690,37.04,
6691,32.31,
6692,22.55,
6693,8.07,
6694,-9.58,
6695,-28.15,
6696,-45.47,
6697,-58.51,
6698,-65.26,
6699,-63.94,
6700,-55.09,
6701,-40.11,
6702,-21.77,
6703,-3.09,
6704,13.56,
6705,25.92,
6706,33.36,
6707,35.43,
6708,33.41,
6709,28.74,
6710,23.86,
6711,20.8,
6712,20.42,
6713,22.51,
6714,24.78,
6715,25.07,
6716,20.97,
6717,12.07,
6718,-1.43,
6719,-18.03,
6720,-35.52,
6721,-51.72,
6722,-63.52,
6723,-68.88,
6724,-66.0,
6725,-55.45,
6726,-38.74,
6727,-18.72,
6728,1.51,
6729,19.59,
6730,33.21,
6731,41.77,
6732,44.79,
6733,43.54,
6734,39.45,
6735,34.96,
6736,32.17,
6737,31.95,
6738,34.16,
6739,36.48,
6740,36.68,
6741,32.27,
6742,22.78,
6743,8.41,
6744,-9.35,
6745,-28.24,
6746,-46.03,
6747,-59.56,
6748,-66.76,
6749,-65.81,
6750,-57.27,
6751,-42.66,
6752,-24.88,
6753,-6.98,
6754,8.73,
6755,20.22,
6756,27.19,
6757,29.48,
6758,28.55,
6759,25.85,
6760,23.69,
6761,23.93,
6762,27.09,
6763,32.62,
6764,37.72,
6765,39.81,
6766,36.29,
6767,26.84,
6768,12.12,
6769,-5.83,
6770,-24.46,
6771,-41.54,
6772,-54.3,
6773,-61.13,
6774,-60.59,
6775,-53.37,
6776,-40.81,
6777,-25.6,
6778,-10.57,
6779,2.23,
6780,11.03,
6781,15.94,
6782,17.24,
6783,16.69,
6784,15.76,
6785,16.58,
6786,20.56,
6787,27.79,
6788,37.3,
6789,46.01,
6790,51.16,
6791,50.03,
6792,42.31,
6793,28.73,
6794,11.39,
6795,-7.15,
6796,-24.78,
6797,-38.94,
6798,-48.27,
6799,-51.5,
6800,-49.28,
6801,-42.81,
6802,-34.53,
6803,-26.87,
6804,-21.42,
6805,-19.17,
6806,-19.21,
6807,-20.51,
6808,-20.98,
6809,-19.29,
6810,-13.95,
6811,-4.35,
6812,8.83,
6813,24.01,
6814,37.72,
6815,47.06,
6816,49.3,
6817,44.3,
6818,33.13,
6819,18.26,
6820,2.44,
6821,-12.26,
6822,-23.66,
6823,-30.94,
6824,-33.27,
6825,-31.51,
6826,-26.78,
6827,-21.31,
6828,-17.21,
6829,-15.69,
6830,-17.24,
6831,-20.35,
6832,-23.46,
6833,-24.17,
6834,-21.3,
6835,-13.76,
6836,-1.63,
6837,13.81,
6838,30.54,
6839,44.96,
6840,54.21,
6841,55.77,
6842,49.81,
6843,37.67,
6844,22.11,
6845,6.03,
6846,-8.54,
6847,-19.62,
6848,-26.67,
6849,-29.1,
6850,-27.88,
6851,-24.06,
6852,-19.75,
6853,-16.93,
6854,-16.67,
6855,-19.36,
6856,-23.38,
6857,-27.06,
6858,-27.97,
6859,-24.98,
6860,-17.18,
6861,-4.84,
6862,10.62,
6863,27.27,
6864,41.66,
6865,51.18,
6866,53.43,
6867,48.55,
6868,37.66,
6869,23.2,
6870,7.88,
6871,-6.38,
6872,-17.47,
6873,-24.71,
6874,-27.39,
6875,-26.35,
6876,-22.66,
6877,-18.4,
6878,-15.54,
6879,-15.18,
6880,-17.8,
6881,-21.93,
6882,-26.06,
6883,-27.84,
6884,-26.06,
6885,-19.6,
6886,-8.45,
6887,6.23,
6888,22.56,
6889,37.02,
6890,46.81,
6891,49.37,
6892,44.68,
6893,33.87,
6894,19.43,
6895,4.05,
6896,-10.27,
6897,-21.45,
6898,-28.82,
6899,-31.66,
6900,-30.88,
6901,-27.59,
6902,-23.97,
6903,-22.01,
6904,-22.74,
6905,-26.33,
6906,-30.95,
6907,-34.73,
6908,-35.17,
6909,-31.25,
6910,-22.28,
6911,-8.79,
6912,7.67,
6913,25.02,
6914,39.82,
6915,49.44,
6916,51.55,
6917,46.33,
6918,35.03,
6919,20.25,
6920,4.77,
6921,-9.38,
6922,-20.2,
6923,-27.14,
6924,-29.67,
6925,-28.79,
6926,-25.62,
6927,-22.3,
6928,-20.77,
6929,-22.0,
6930,-26.23,
6931,-31.64,
6932,-36.41,
6933,-37.99,
6934,-35.25,
6935,-27.28,
6936,-14.42,
6937,1.86,
6938,19.48,
6939,34.83,
6940,45.15,
6941,47.95,
6942,43.39,
6943,32.74,
6944,18.68,
6945,4.0,
6946,-9.32,
6947,-19.41,
6948,-25.86,
6949,-28.24,
6950,-27.58,
6951,-25.02,
6952,-22.7,
6953,-22.49,
6954,-25.19,
6955,-30.68,
6956,-36.73,
6957,-41.12,
6958,-41.2,
6959,-36.08,
6960,-25.46,
6961,-10.32,
6962,7.47,
6963,25.78,
6964,41.35,
6965,51.82,
6966,55.03,
6967,51.15,
6968,41.29,
6969,27.89,
6970,13.64,
6971,0.58,
6972,-9.25,
6973,-15.3,
6974,-17.14,
6975,-15.9,
6976,-12.9,
6977,-10.4,
6978,-10.32,
6979,-13.39,
6980,-19.39,
6981,-25.96,
6982,-30.83,
6983,-31.31,
6984,-26.56,
6985,-16.25,
6986,-1.36,
6987,16.26,
6988,34.53,
6989,50.21,
6990,60.99,
6991,64.72,
6992,61.62,
6993,52.85,
6994,40.91,
6995,28.44,
6996,17.27,
6997,9.01,
6998,3.6,
6999,1.05,
7000,0.03,
7001,-0.42,
7002,-1.93,
7003,-5.66,
7004,-11.77,
7005,-19.79,
7006,-27.43,
7007,-32.64,
7008,-32.99,
7009,-27.82,
7010,-17.04,
7011,-1.89,
7012,15.59,
7013,33.16,
7014,47.64,
7015,56.95,
7016,59.29,
7017,55.18,
7018,45.98,
7019,34.3,
7020,22.73,
7021,12.92,
7022,6.1,
7023,1.83,
7024,-0.3,
7025,-1.72,
7026,-3.25,
7027,-6.13,
7028,-11.01,
7029,-17.71,
7030,-25.51,
7031,-32.13,
7032,-35.65,
7033,-33.9,
7034,-26.52,
7035,-13.75,
7036,2.88,
7037,21.11,
7038,38.65,
7039,52.45,
7040,60.68,
7041,61.76,
7042,56.4,
7043,46.02,
7044,33.3,
7045,20.87,
7046,10.4,
7047,3.16,
7048,-1.35,
7049,-3.59,
7050,-5.07,
7051,-6.6,
7052,-9.35,
7053,-13.88,
7054,-19.92,
7055,-26.85,
7056,-32.55,
7057,-35.34,
7058,-33.22,
7059,-25.89,
7060,-13.46,
7061,2.69,
7062,20.46,
7063,37.64,
7064,51.15,
7065,59.06,
7066,59.75,
7067,53.88,
7068,42.89,
7069,29.42,
7070,16.14,
7071,4.81,
7072,-3.09,
7073,-7.77,
7074,-9.37,
7075,-9.22,
7076,-8.15,
7077,-7.47,
7078,-8.04,
7079,-9.96,
7080,-13.05,
7081,-15.62,
7082,-16.38,
7083,-13.49,
7084,-6.52,
7085,4.79,
7086,19.6,
7087,36.12,
7088,52.22,
7089,64.57,
7090,70.85,
7091,69.1,
7092,59.86,
7093,44.62,
7094,26.15,
7095,7.39,
7096,-9.48,
7097,-22.3,
7098,-30.36,
7099,-33.07,
7100,-31.41,
7101,-26.59,
7102,-20.83,
7103,-16.19,
7104,-13.85,
7105,-14.35,
7106,-16.32,
7107,-18.34,
7108,-18.2,
7109,-14.82,
7110,-7.2,
7111,4.58,
7112,19.27,
7113,34.91,
7114,47.92,
7115,55.5,
7116,55.18,
7117,47.19,
7118,32.96,
7119,15.27,
7120,-2.88,
7121,-19.37,
7122,-32.04,
7123,-40.18,
7124,-43.03,
7125,-41.45,
7126,-36.49,
7127,-30.3,
7128,-25.03,
7129,-22.06,
7130,-22.2,
7131,-24.26,
7132,-26.97,
7133,-27.97,
7134,-25.9,
7135,-19.35,
7136,-8.06,
7137,6.86,
7138,23.33,
7139,37.5,
7140,46.23,
7141,46.86,
7142,39.6,
7143,26.01,
7144,9.08,
7145,-8.15,
7146,-23.57,
7147,-35.22,
7148,-42.61,
7149,-45.14,
7150,-43.72,
7151,-39.44,
7152,-34.42,
7153,-30.72,
7154,-29.49,
7155,-31.07,
7156,-33.72,
7157,-35.66,
7158,-34.38,
7159,-28.9,
7160,-18.56,
7161,-3.93,
7162,13.33,
7163,31.1,
7164,45.97,
7165,55.4,
7166,57.15,
7167,51.5,
7168,39.76,
7169,24.57,
7170,8.79,
7171,-5.53,
7172,-16.26,
7173,-22.75,
7174,-24.36,
7175,-22.08,
7176,-17.04,
7177,-11.39,
7178,-7.15,
7179,-5.46,
7180,-6.86,
7181,-9.94,
7182,-13.27,
7183,-14.52,
7184,-12.47,
7185,-5.96,
7186,5.1,
7187,19.49,
7188,35.22,
7189,48.58,
7190,56.61,
7191,56.75,
7192,49.22,
7193,35.49,
7194,18.41,
7195,0.98,
7196,-14.74,
7197,-26.74,
7198,-34.43,
7199,-37.19,
7200,-35.88,
7201,-31.58,
7202,-26.44,
7203,-22.53,
7204,-21.08,
7205,-22.59,
7206,-25.52,
7207,-28.22,
7208,-28.28,
7209,-24.62,
7210,-16.41,
7211,-4.07,
7212,10.87,
7213,26.37,
7214,39.03,
7215,46.32,
7216,46.08,
7217,38.67,
7218,25.47,
7219,9.12,
7220,-7.52,
7221,-22.42,
7222,-33.47,
7223,-40.01,
7224,-41.34,
7225,-38.38,
7226,-32.23,
7227,-24.98,
7228,-18.76,
7229,-14.93,
7230,-14.41,
7231,-16.32,
7232,-19.69,
7233,-22.48,
7234,-23.56,
7235,-21.69,
7236,-16.58,
7237,-8.97,
7238,-0.13,
7239,7.25,
7240,11.19,
7241,9.73,
7242,3.01,
7243,-8.23,
7244,-22.11,
7245,-36.34,
7246,-48.96,
7247,-57.46,
7248,-60.5,
7249,-56.86,
7250,-47.26,
7251,-32.95,
7252,-16.38,
7253,-0.14,
7254,13.7,
7255,23.1,
7256,27.61,
7257,26.92,
7258,22.4,
7259,15.43,
7260,8.27,
7261,2.73,
7262,-0.4,
7263,-1.07,
7264,-1.15,
7265,-2.25,
7266,-6.42,
7267,-14.13,
7268,-25.52,
7269,-39.63,
7270,-54.64,
7271,-68.43,
7272,-77.7,
7273,-80.12,
7274,-73.72,
7275,-59.14,
7276,-38.15,
7277,-13.93,
7278,10.15,
7279,31.5,
7280,47.74,
7281,58.12,
7282,62.07,
7283,60.77,
7284,55.62,
7285,49.15,
7286,43.6,
7287,40.15,
7288,39.04,
7289,38.33,
7290,36.12,
7291,30.14,
7292,19.86,
7293,5.36,
7294,-12.07,
7295,-30.26,
7296,-46.98,
7297,-59.03,
7298,-64.25,
7299,-60.82,
7300,-49.42,
7301,-31.73,
7302,-10.77,
7303,10.21,
7304,28.76,
7305,42.54,
7306,50.86,
7307,53.22,
7308,50.83,
7309,45.08,
7310,38.4,
7311,32.94,
7312,29.77,
7313,29.07,
7314,28.92,
7315,27.47,
7316,22.46,
7317,13.32,
7318,0.02,
7319,-16.29,
7320,-33.57,
7321,-49.61,
7322,-61.17,
7323,-66.02,
7324,-62.26,
7325,-50.53,
7326,-32.52,
7327,-11.27,
7328,9.99,
7329,28.82,
7330,42.93,
7331,51.69,
7332,54.62,
7333,52.9,
7334,47.92,
7335,42.08,
7336,37.53,
7337,35.26,
7338,35.34,
7339,35.69,
7340,34.32,
7341,28.9,
7342,19.0,
7343,4.85,
7344,-12.08,
7345,-29.61,
7346,-45.68,
7347,-57.41,
7348,-63.03,
7349,-60.88,
7350,-51.5,
7351,-36.13,
7352,-17.27,
7353,2.26,
7354,20.18,
7355,34.1,
7356,43.14,
7357,46.6,
7358,45.51,
7359,41.13,
7360,35.68,
7361,31.21,
7362,28.74,
7363,28.75,
7364,29.81,
7365,30.65,
7366,29.34,
7367,25.35,
7368,18.32,
7369,8.86,
7370,-1.79,
7371,-12.43,
7372,-20.83,
7373,-25.6,
7374,-25.05,
7375,-19.19,
7376,-8.31,
7377,6.2,
7378,22.24,
7379,37.73,
7380,49.81,
7381,56.79,
7382,57.26,
7383,51.94,
7384,42.16,
7385,30.44,
7386,19.22,
7387,10.1,
7388,4.38,
7389,1.72,
7390,1.85,
7391,3.38,
7392,5.5,
7393,6.99,
7394,7.15,
7395,5.99,
7396,3.75,
7397,2.06,
7398,2.11,
7399,5.57,
7400,12.75,
7401,23.87,
7402,38.05,
7403,53.56,
7404,68.29,
7405,78.97,
7406,83.38,
7407,79.61,
7408,68.31,
7409,50.99,
7410,30.5,
7411,9.8,
7412,-8.88,
7413,-23.23,
7414,-32.42,
7415,-35.65,
7416,-33.83,
7417,-28.12,
7418,-20.77,
7419,-13.99,
7420,-9.28,
7421,-7.65,
7422,-8.24,
7423,-10.04,
7424,-10.92,
7425,-9.54,
7426,-4.32,
7427,5.16,
7428,17.93,
7429,31.87,
7430,43.05,
7431,48.21,
7432,44.75,
7433,33.1,
7434,15.1,
7435,-6.01,
7436,-27.07,
7437,-46.03,
7438,-61.03,
7439,-71.61,
7440,-77.05,
7441,-78.01,
7442,-75.16,
7443,-70.28,
7444,-65.41,
7445,-62.16,
7446,-61.88,
7447,-64.12,
7448,-68.23,
7449,-72.22,
7450,-74.82,
7451,-74.46,
7452,-70.64,
7453,-63.95,
7454,-55.79,
7455,-49.06,
7456,-46.01,
7457,-48.68,
7458,-56.95,
7459,-69.72,
7460,-84.55,
7461,-98.77,
7462,-109.8,
7463,-115.3,
7464,-114.17,
7465,-105.89,
7466,-92.18,
7467,-75.31,
7468,-58.7,
7469,-45.27,
7470,-36.93,
7471,-34.11,
7472,-35.23,
7473,-38.03,
7474,-39.04,
7475,-36.02,
7476,-27.26,
7477,-12.94,
7478,5.58,
7479,26.19,
7480,46.19,
7481,63.48,
7482,75.75,
7483,82.18,
7484,82.11,
7485,76.4,
7486,66.73,
7487,55.51,
7488,45.21,
7489,37.37,
7490,32.65,
7491,29.62,
7492,26.77,
7493,21.86,
7494,13.91,
7495,2.3,
7496,-12.46,
7497,-28.54,
7498,-43.62,
7499,-54.01,
7500,-57.05,
7501,-50.74,
7502,-35.94,
7503,-14.8,
7504,9.28,
7505,32.82,
7506,53.51,
7507,69.25,
7508,79.51,
7509,83.7,
7510,82.73,
7511,77.64,
7512,70.56,
7513,63.68,
7514,58.39,
7515,55.56,
7516,54.0,
7517,52.44,
7518,48.85,
7519,42.59,
7520,33.39,
7521,22.04,
7522,10.11,
7523,-0.94,
7524,-8.84,
7525,-12.29,
7526,-9.9,
7527,-2.0,
7528,10.8,
7529,26.83,
7530,43.86,
7531,59.77,
7532,71.69,
7533,78.05,
7534,77.5,
7535,70.82,
7536,59.35,
7537,45.53,
7538,31.85,
7539,20.03,
7540,11.68,
7541,6.86,
7542,5.64,
7543,6.8,
7544,9.44,
7545,12.0,
7546,13.37,
7547,13.16,
7548,11.24,
7549,9.06,
7550,7.72,
7551,9.02,
7552,13.59,
7553,22.07,
7554,34.04,
7555,48.07,
7556,62.15,
7557,72.84,
7558,77.57,
7559,74.17,
7560,63.09,
7561,45.88,
7562,25.42,
7563,4.74,
7564,-13.9,
7565,-28.26,
7566,-37.52,
7567,-40.9,
7568,-39.27,
7569,-33.76,
7570,-26.62,
7571,-20.07,
7572,-15.63,
7573,-14.28,
7574,-15.06,
7575,-16.86,
7576,-17.49,
7577,-15.57,
7578,-9.61,
7579,0.73,
7580,14.41,
7581,29.31,
7582,41.53,
7583,47.92,
7584,45.85,
7585,35.72,
7586,19.28,
7587,-0.37,
7588,-20.07,
7589,-37.76,
7590,-51.49,
7591,-60.74,
7592,-64.8,
7593,-64.4,
7594,-60.37,
7595,-54.63,
7596,-49.31,
7597,-45.89,
7598,-45.52,
7599,-47.46,
7600,-50.75,
7601,-53.3,
7602,-53.87,
7603,-51.18,
7604,-44.97,
7605,-36.14,
7606,-26.06,
7607,-17.5,
7608,-12.43,
7609,-12.73,
7610,-18.23,
7611,-28.15,
7612,-40.66,
7613,-53.48,
7614,-64.74,
7615,-71.91,
7616,-73.68,
7617,-68.8,
7618,-58.0,
7619,-42.51,
7620,-24.74,
7621,-7.31,
7622,7.67,
7623,18.05,
7624,23.23,
7625,22.74,
7626,17.9,
7627,10.16,
7628,1.97,
7629,-4.63,
7630,-8.67,
7631,-9.99,
7632,-10.44,
7633,-11.67,
7634,-15.78,
7635,-23.3,
7636,-34.38,
7637,-48.06,
7638,-62.47,
7639,-75.48,
7640,-83.79,
7641,-85.1,
7642,-77.5,
7643,-61.75,
7644,-39.66,
7645,-14.47,
7646,10.45,
7647,32.58,
7648,49.54,
7649,60.57,
7650,65.01,
7651,63.9,
7652,58.48,
7653,51.05,
7654,43.92,
7655,38.51,
7656,35.67,
7657,34.26,
7658,33.06,
7659,30.11,
7660,24.67,
7661,16.25,
7662,5.44,
7663,-6.28,
7664,-17.3,
7665,-24.94,
7666,-27.43,
7667,-23.15,
7668,-12.49,
7669,3.54,
7670,22.8,
7671,42.72,
7672,61.12,
7673,75.32,
7674,83.98,
7675,85.88,
7676,81.78,
7677,72.88,
7678,61.51,
7679,50.09,
7680,40.32,
7681,33.72,
7682,30.1,
7683,29.31,
7684,29.92,
7685,31.08,
7686,31.51,
7687,30.51,
7688,28.14,
7689,24.63,
7690,21.61,
7691,20.16,
7692,21.92,
7693,27.23,
7694,36.38,
7695,48.62,
7696,62.32,
7697,75.43,
7698,84.62,
7699,87.57,
7700,82.33,
7701,69.49,
7702,50.62,
7703,28.62,
7704,6.51,
7705,-13.46,
7706,-28.97,
7707,-39.22,
7708,-43.43,
7709,-42.51,
7710,-37.62,
7711,-31.02,
7712,-24.9,
7713,-20.74,
7714,-19.51,
7715,-20.27,
7716,-21.96,
7717,-22.45,
7718,-20.41,
7719,-14.36,
7720,-3.87,
7721,10.09,
7722,25.52,
7723,38.57,
7724,46.06,
7725,45.28,
7726,36.48,
7727,21.28,
7728,2.72,
7729,-16.05,
7730,-32.88,
7731,-45.72,
7732,-53.95,
7733,-56.86,
7734,-55.24,
7735,-50.13,
7736,-43.67,
7737,-38.06,
7738,-34.71,
7739,-34.4,
7740,-35.88,
7741,-37.73,
7742,-37.58,
7743,-34.24,
7744,-26.65,
7745,-14.97,
7746,-0.6,
7747,14.41,
7748,26.52,
7749,33.11,
7750,31.99,
7751,23.61,
7752,9.57,
7753,-7.3,
7754,-24.0,
7755,-38.49,
7756,-48.66,
7757,-53.91,
7758,-53.57,
7759,-48.57,
7760,-39.99,
7761,-30.01,
7762,-20.85,
7763,-14.06,
7764,-10.89,
7765,-10.7,
7766,-12.74,
7767,-15.07,
7768,-16.46,
7769,-15.47,
7770,-11.58,
7771,-5.37,
7772,2.07,
7773,8.06,
7774,10.68,
7775,7.97,
7776,0.08,
7777,-12.27,
7778,-27.21,
7779,-42.43,
7780,-55.93,
7781,-65.1,
7782,-68.51,
7783,-64.83,
7784,-54.81,
7785,-39.77,
7786,-22.27,
7787,-5.05,
7788,9.74,
7789,20.03,
7790,25.35,
7791,25.44,
7792,21.66,
7793,15.39,
7794,8.89,
7795,3.92,
7796,1.22,
7797,0.75,
7798,0.57,
7799,-1.0,
7800,-5.96,
7801,-14.68,
7802,-27.11,
7803,-42.06,
7804,-57.57,
7805,-71.51,
7806,-80.7,
7807,-82.97,
7808,-76.5,
7809,-61.99,
7810,-41.15,
7811,-17.1,
7812,6.84,
7813,28.12,
7814,44.29,
7815,54.55,
7816,58.26,
7817,56.58,
7818,50.9,
7819,43.72,
7820,37.35,
7821,33.03,
7822,31.2,
7823,30.19,
7824,28.3,
7825,23.31,
7826,14.53,
7827,1.69,
7828,-14.28,
7829,-31.46,
7830,-47.6,
7831,-59.31,
7832,-64.18,
7833,-60.26,
7834,-48.21,
7835,-29.87,
7836,-8.4,
7837,12.87,
7838,31.54,
7839,45.39,
7840,53.84,
7841,56.38,
7842,54.13,
7843,48.37,
7844,41.38,
7845,35.32,
7846,31.32,
7847,29.76,
7848,28.92,
7849,27.12,
7850,22.19,
7851,13.63,
7852,1.44,
7853,-13.21,
7854,-28.39,
7855,-42.23,
7856,-51.98,
7857,-55.9,
7858,-52.38,
7859,-41.86,
7860,-25.44,
7861,-5.42,
7862,15.46,
7863,34.91,
7864,50.31,
7865,60.5,
7866,64.53,
7867,63.31,
7868,58.15,
7869,51.38,
7870,45.2,
7871,40.84,
7872,39.02,
7873,38.64,
7874,38.69,
7875,37.36,
7876,34.01,
7877,28.04,
7878,19.66,
7879,9.83,
7880,-0.39,
7881,-8.8,
7882,-13.89,
7883,-13.91,
7884,-8.81,
7885,1.12,
7886,14.45,
7887,29.09,
7888,42.99,
7889,53.29,
7890,58.31,
7891,56.62,
7892,48.93,
7893,36.57,
7894,22.01,
7895,7.77,
7896,-4.41,
7897,-12.96,
7898,-17.86,
7899,-19.11,
7900,-17.99,
7901,-15.41,
7902,-12.93,
7903,-11.67,
7904,-12.04,
7905,-14.15,
7906,-16.58,
7907,-18.17,
7908,-17.03,
7909,-12.43,
7910,-3.57,
7911,9.28,
7912,24.74,
7913,40.77,
7914,53.85,
7915,61.28,
7916,60.73,
7917,52.57,
7918,38.29,
7919,20.73,
7920,2.85,
7921,-13.2,
7922,-25.35,
7923,-32.96,
7924,-35.39,
7925,-33.59,
7926,-28.68,
7927,-22.83,
7928,-18.14,
7929,-15.81,
7930,-16.38,
7931,-18.41,
7932,-20.4,
7933,-20.01,
7934,-16.17,
7935,-7.93,
7936,4.5,
7937,19.75,
7938,35.77,
7939,49.02,
7940,56.71,
7941,56.45,
7942,48.5,
7943,34.33,
7944,16.74,
7945,-1.27,
7946,-17.55,
7947,-29.92,
7948,-37.72,
7949,-40.25,
7950,-38.45,
7951,-33.43,
7952,-27.39,
7953,-22.43,
7954,-19.83,
7955,-20.24,
7956,-22.35,
7957,-24.74,
7958,-25.1,
7959,-22.17,
7960,-14.73,
7961,-2.72,
7962,12.69,
7963,29.47,
7964,43.91,
7965,53.07,
7966,54.38,
7967,48.05,
7968,35.51,
7969,19.6,
7970,3.27,
7971,-11.41,
7972,-22.39,
7973,-29.09,
7974,-30.82,
7975,-28.46,
7976,-23.07,
7977,-16.78,
7978,-11.69,
7979,-9.05,
7980,-9.47,
7981,-11.52,
7982,-13.7,
7983,-13.64,
7984,-10.2,
7985,-2.35,
7986,9.69,
7987,24.54,
7988,40.08,
7989,52.66,
7990,59.5,
7991,58.21,
7992,49.16,
7993,33.9,
7994,15.36,
7995,-3.44,
7996,-20.35,
7997,-33.28,
7998,-41.63,
7999,-44.73,
8000,-43.48,
8001,-38.94,
8002,-33.24,
8003,-28.48,
8004,-25.98,
8005,-26.44,
8006,-28.64,
8007,-31.22,
8008,-31.87,
8009,-29.41,
8010,-22.7,
8011,-11.73,
8012,2.29,
8013,17.45,
8014,30.32,
8015,38.21,
8016,38.77,
8017,32.2,
8018,19.76,
8019,4.01,
8020,-12.31,
8021,-27.2,
8022,-38.51,
8023,-45.51,
8024,-47.38,
8025,-44.94,
8026,-39.22,
8027,-32.35,
8028,-26.45,
8029,-22.87,
8030,-22.51,
8031,-24.4,
8032,-27.49,
8033,-29.68,
8034,-29.86,
8035,-26.8,
8036,-20.27,
8037,-11.08,
8038,-0.53,
8039,8.6,
8040,14.26,
8041,14.42,
8042,9.15,
8043,-0.83,
8044,-13.63,
8045,-26.91,
8046,-38.74,
8047,-46.59,
8048,-49.21,
8049,-45.41,
8050,-35.98,
8051,-22.21,
8052,-6.53,
8053,8.48,
8054,20.92,
8055,29.0,
8056,32.58,
8057,31.63,
8058,27.66,
8059,21.98,
8060,16.61,
8061,13.03,
8062,11.66,
8063,12.18,
8064,12.46,
8065,10.7,
8066,4.9,
8067,-5.14,
8068,-19.15,
8069,-35.7,
8070,-52.66,
8071,-67.91,
8072,-78.35,
8073,-82.0,
8074,-77.11,
8075,-64.39,
8076,-45.45,
8077,-23.27,
8078,-1.07,
8079,18.63,
8080,33.42,
8081,42.54,
8082,45.43,
8083,43.3,
8084,37.62,
8085,30.86,
8086,25.23,
8087,21.82,
8088,20.88,
8089,20.55,
8090,19.06,
8091,14.22,
8092,5.49,
8093,-7.23,
8094,-22.85,
8095,-39.4,
8096,-54.72,
8097,-65.56,
8098,-69.66,
8099,-65.12,
8100,-52.53,
8101,-33.63,
8102,-11.47,
8103,10.67,
8104,30.29,
8105,45.04,
8106,54.2,
8107,57.21,
8108,55.24,
8109,49.66,
8110,42.93,
8111,37.27,
8112,33.82,
8113,32.86,
8114,32.52,
8115,30.99,
8116,25.98,
8117,16.88,
8118,3.59,
8119,-12.79,
8120,-30.22,
8121,-46.5,
8122,-58.31,
8123,-63.36,
8124,-59.75,
8125,-48.11,
8126,-30.17,
8127,-9.01,
8128,12.11,
8129,30.76,
8130,44.69,
8131,53.27,
8132,56.03,
8133,54.14,
8134,48.99,
8135,42.96,
8136,38.18,
8137,35.69,
8138,35.61,
8139,35.94,
8140,34.73,
8141,29.66,
8142,20.22,
8143,6.53,
8144,-10.1,
8145,-27.56,
8146,-43.71,
8147,-55.53,
8148,-61.03,
8149,-58.45,
8150,-48.36,
8151,-32.14,
8152,-12.51,
8153,7.54,
8154,25.68,
8155,39.57,
8156,48.43,
8157,51.66,
8158,50.39,
8159,45.93,
8160,40.61,
8161,36.48,
8162,34.52,
8163,34.94,
8164,35.94,
8165,35.83,
8166,32.42,
8167,25.13,
8168,13.78,
8169,-0.76,
8170,-16.84,
8171,-32.79,
8172,-45.88,
8173,-54.23,
8174,-55.9,
8175,-50.96,
8176,-40.12,
8177,-25.33,
8178,-9.04,
8179,6.62,
8180,19.11,
8181,27.3,
8182,30.19,
8183,28.69,
8184,24.06,
8185,18.6,
8186,14.37,
8187,12.36,
8188,12.83,
8189,14.18,
8190,14.96,
8191,13.17,
8192,8.25,
8193,-0.16,
8194,-11.46,
8195,-24.29,
8196,-37.14,
8197,-47.33,
8198,-52.9,
8199,-51.83,
8200,-44.14,
8201,-30.54,
8202,-13.05,
8203,5.75,
8204,23.58,
8205,37.76,
8206,46.97,
8207,50.19,
8208,48.35,
8209,42.86,
8210,36.25,
8211,30.75,
8212,27.51,
8213,26.9,
8214,27.3,
8215,27.27,
8216,24.75,
8217,19.12,
8218,10.0,
8219,-2.05,
8220,-15.71,
8221,-29.49,
8222,-40.73,
8223,-47.5,
8224,-47.77,
8225,-41.53,
8226,-29.42,
8227,-13.33,
8228,4.29,
8229,21.31,
8230,35.18,
8231,44.64,
8232,48.63,
8233,47.97,
8234,43.85,
8235,38.54,
8236,34.15,
8237,31.81,
8238,32.15,
8239,33.93,
8240,35.99,
8241,36.27,
8242,33.81,
8243,27.55,
8244,17.3,
8245,3.82,
8246,-11.73,
8247,-26.62,
8248,-38.67,
8249,-45.4,
8250,-46.29,
8251,-41.4,
8252,-32.09,
8253,-20.34,
8254,-8.03,
8255,2.29,
8256,9.26,
8257,11.58,
8258,9.92,
8259,5.41,
8260,0.33,
8261,-3.27,
8262,-4.46,
8263,-3.05,
8264,-0.73,
8265,0.98,
8266,0.04,
8267,-4.16,
8268,-12.05,
8269,-23.07,
8270,-35.92,
8271,-49.12,
8272,-59.91,
8273,-66.3,
8274,-66.15,
8275,-59.42,
8276,-46.73,
8277,-30.09,
8278,-12.0,
8279,5.31,
8280,19.2,
8281,28.47,
8282,32.08,
8283,30.98,
8284,26.46,
8285,20.92,
8286,16.47,
8287,14.18,
8288,14.43,
8289,15.69,
8290,16.61,
8291,15.22,
8292,10.89,
8293,3.16,
8294,-7.51,
8295,-19.91,
8296,-32.65,
8297,-43.12,
8298,-49.42,
8299,-49.51,
8300,-43.35,
8301,-31.47,
8302,-15.71,
8303,1.52,
8304,18.03,
8305,31.15,
8306,39.52,
8307,42.0,
8308,39.45,
8309,33.22,
8310,25.75,
8311,19.29,
8312,15.02,
8313,13.49,
8314,13.34,
8315,13.38,
8316,11.68,
8317,7.59,
8318,0.51,
8319,-9.28,
8320,-20.73,
8321,-32.56,
8322,-42.22,
8323,-47.83,
8324,-47.37,
8325,-40.77,
8326,-28.6,
8327,-12.7,
8328,4.5,
8329,20.77,
8330,33.38,
8331,40.93,
8332,42.25,
8333,38.23,
8334,30.27,
8335,20.91,
8336,12.51,
8337,6.37,
8338,3.18,
8339,1.78,
8340,1.09,
8341,-0.72,
8342,-4.29,
8343,-10.26,
8344,-18.45,
8345,-27.92,
8346,-37.54,
8347,-44.92,
8348,-48.37,
8349,-45.98,
8350,-37.75,
8351,-24.2,
8352,-7.11,
8353,11.15,
8354,28.35,
8355,41.63,
8356,49.47,
8357,50.57,
8358,45.77,
8359,36.47,
8360,25.2,
8361,14.44,
8362,5.7,
8363,0.11,
8364,-2.98,
8365,-4.14,
8366,-4.95,
8367,-6.21,
8368,-8.97,
8369,-13.67,
8370,-19.95,
8371,-27.18,
8372,-33.32,
8373,-36.76,
8374,-35.54,
8375,-29.32,
8376,-18.1,
8377,-3.09,
8378,13.7,
8379,30.1,
8380,43.0,
8381,50.4,
8382,50.61,
8383,44.3,
8384,32.91,
8385,19.17,
8386,5.76,
8387,-5.6,
8388,-13.52,
8389,-18.32,
8390,-20.29,
8391,-20.81,
8392,-20.72,
8393,-21.35,
8394,-23.47,
8395,-27.06,
8396,-31.61,
8397,-35.02,
8398,-35.6,
8399,-31.29,
8400,-21.85,
8401,-7.49,
8402,10.28,
8403,29.23,
8404,47.02,
8405,60.51,
8406,67.74,
8407,67.08,
8408,59.29,
8409,45.95,
8410,29.88,
8411,13.97,
8412,0.12,
8413,-10.09,
8414,-16.87,
8415,-20.38,
8416,-21.99,
8417,-22.54,
8418,-23.36,
8419,-25.28,
8420,-28.37,
8421,-32.35,
8422,-35.47,
8423,-36.29,
8424,-32.93,
8425,-24.99,
8426,-12.34,
8427,3.97,
8428,21.99,
8429,39.5,
8430,53.21,
8431,60.87,
8432,60.66,
8433,53.17,
8434,39.94,
8435,23.8,
8436,7.57,
8437,-6.75,
8438,-17.41,
8439,-24.23,
8440,-27.04,
8441,-27.02,
8442,-25.13,
8443,-23.07,
8444,-22.21,
8445,-23.13,
8446,-25.88,
8447,-28.82,
8448,-30.47,
8449,-28.75,
8450,-22.91,
8451,-12.46,
8452,2.0,
8453,18.81,
8454,35.86,
8455,49.78,
8456,58.07,
8457,58.57,
8458,51.7,
8459,38.83,
8460,22.72,
8461,6.23,
8462,-8.58,
8463,-19.69,
8464,-26.62,
8465,-28.87,
8466,-27.48,
8467,-23.53,
8468,-19.06,
8469,-15.92,
8470,-15.08,
8471,-16.93,
8472,-19.95,
8473,-22.65,
8474,-22.77,
8475,-19.26,
8476,-11.2,
8477,1.18,
8478,16.5,
8479,32.72,
8480,46.28,
8481,54.44,
8482,54.83,
8483,47.72,
8484,34.5,
8485,17.92,
8486,0.89,
8487,-14.56,
8488,-26.38,
8489,-33.96,
8490,-36.64,
8491,-35.31,
8492,-30.99,
8493,-25.8,
8494,-21.78,
8495,-20.17,
8496,-21.68,
8497,-25.07,
8498,-29.01,
8499,-31.22,
8500,-30.44,
8501,-25.46,
8502,-16.17,
8503,-3.64,
8504,10.34,
8505,22.4,
8506,29.94,
8507,30.65,
8508,24.69,
8509,13.27,
8510,-1.15,
8511,-15.88,
8512,-28.94,
8513,-38.16,
8514,-42.73,
8515,-41.81,
8516,-36.24,
8517,-27.18,
8518,-16.88,
8519,-7.65,
8520,-1.08,
8521,1.64,
8522,1.19,
8523,-1.65,
8524,-4.89,
8525,-7.26,
8526,-7.27,
8527,-4.33,
8528,1.0,
8529,7.52,
8530,12.45,
8531,13.73,
8532,9.4,
8533,-0.25,
8534,-14.21,
8535,-30.3,
8536,-46.01,
8537,-59.31,
8538,-67.69,
8539,-69.93,
8540,-64.87,
8541,-53.35,
8542,-36.69,
8543,-17.45,
8544,1.57,
8545,18.09,
8546,29.79,
8547,35.98,
8548,36.23,
8549,31.94,
8550,24.66,
8551,16.92,
8552,10.81,
8553,7.26,
8554,6.37,
8555,6.23,
8556,5.08,
8557,0.79,
8558,-7.14,
8559,-18.82,
8560,-33.21,
8561,-48.43,
8562,-62.34,
8563,-71.69,
8564,-74.22,
8565,-68.05,
8566,-53.84,
8567,-33.38,
8568,-9.77,
8569,13.71,
8570,34.62,
8571,50.67,
8572,61.16,
8573,65.47,
8574,64.65,
8575,59.91,
8576,53.53,
8577,47.74,
8578,43.89,
8579,42.75,
8580,43.08,
8581,43.62,
8582,42.37,
8583,38.7,
8584,32.25,
8585,23.77,
8586,14.75,
8587,6.62,
8588,1.68,
8589,1.2,
8590,6.45,
8591,16.88,
8592,31.6,
8593,48.72,
8594,65.87,
8595,80.94,
8596,91.19,
8597,95.17,
8598,91.64,
8599,81.42,
8600,65.84,
8601,47.32,
8602,28.5,
8603,11.46,
8604,-1.54,
8605,-9.71,
8606,-12.38,
8607,-10.6,
8608,-5.57,
8609,0.48,
8610,5.55,
8611,8.34,
8612,8.0,
8613,5.41,
8614,1.48,
8615,-1.87,
8616,-3.44,
8617,-1.78,
8618,3.55,
8619,11.59,
8620,20.39,
8621,26.2,
8622,26.08,
8623,17.78,
8624,2.09,
8625,-18.87,
8626,-41.62,
8627,-62.79,
8628,-80.24,
8629,-92.04,
8630,-97.73,
8631,-96.69,
8632,-89.75,
8633,-77.85,
8634,-63.03,
8635,-47.81,
8636,-34.44,
8637,-25.32,
8638,-21.14,
8639,-22.15,
8640,-26.78,
8641,-33.4,
8642,-39.67,
8643,-43.89,
8644,-45.49,
8645,-44.54,
8646,-42.82,
8647,-41.75,
8648,-43.18,
8649,-47.55,
8650,-55.14,
8651,-65.17,
8652,-75.92,
8653,-85.28,
8654,-89.85,
8655,-87.27,
8656,-75.71,
8657,-56.05,
8658,-30.34,
8659,-1.89,
8660,25.98,
8661,50.98,
8662,71.0,
8663,85.42,
8664,93.53,
8665,96.1,
8666,93.92,
8667,88.86,
8668,83.07,
8669,78.21,
8670,75.93,
8671,76.08,
8672,78.39,
8673,81.24,
8674,83.71,
8675,84.63,
8676,83.59,
8677,80.9,
8678,76.87,
8679,72.85,
8680,69.62,
8681,68.54,
8682,69.98,
8683,74.52,
8684,81.8,
8685,90.36,
8686,98.11,
8687,101.46,
8688,97.9,
8689,85.53,
8690,65.3,
8691,39.3,
8692,10.87,
8693,-16.76,
8694,-41.41,
8695,-61.05,
8696,-75.05,
8697,-82.64,
8698,-84.51,
8699,-81.41,
8700,-75.21,
8701,-68.17,
8702,-62.2,
8703,-59.26,
8704,-59.62,
8705,-63.29,
8706,-68.65,
8707,-74.36,
8708,-78.52,
8709,-79.98,
8710,-78.72,
8711,-75.34,
8712,-72.01,
8713,-70.41,
8714,-72.39,
8715,-78.06,
8716,-87.15,
8717,-98.29,
8718,-109.36,
8719,-118.13,
8720,-121.45,
8721,-117.3,
8722,-104.14,
8723,-83.01,
8724,-55.89,
8725,-26.06,
8726,3.13,
8727,29.21,
8728,49.89,
8729,64.45,
8730,72.28,
8731,74.35,
8732,71.77,
8733,66.7,
8734,61.36,
8735,57.27,
8736,55.61,
8737,55.68,
8738,56.71,
8739,56.95,
8740,55.67,
8741,52.19,
8742,46.71,
8743,40.18,
8744,33.53,
8745,28.68,
8746,26.77,
8747,29.18,
8748,35.86,
8749,46.57,
8750,60.11,
8751,74.47,
8752,87.5,
8753,96.03,
8754,98.11,
8755,92.17,
8756,79.05,
8757,60.34,
8758,38.8,
8759,17.22,
8760,-2.39,
8761,-17.95,
8762,-28.79,
8763,-34.16,
8764,-34.88,
8765,-31.82,
8766,-26.89,
8767,-22.12,
8768,-19.07,
8769,-19.19,
8770,-22.28,
8771,-28.05,
8772,-34.76,
8773,-41.12,
8774,-45.34,
8775,-46.44,
8776,-44.69,
8777,-41.14,
8778,-38.55,
8779,-39.03,
8780,-44.55,
8781,-54.82,
8782,-68.78,
8783,-84.19,
8784,-98.39,
8785,-109.15,
8786,-113.75,
8787,-110.82,
8788,-99.22,
8789,-80.01,
8790,-54.87,
8791,-26.72,
8792,1.28,
8793,26.62,
8794,46.77,
8795,60.82,
8796,68.1,
8797,69.73,
8798,66.96,
8799,62.05,
8800,57.21,
8801,53.88,
8802,53.27,
8803,54.78,
8804,57.78,
8805,60.46,
8806,61.77,
8807,60.33,
8808,55.63,
8809,48.14,
8810,38.82,
8811,30.12,
8812,23.88,
8813,22.12,
8814,24.98,
8815,32.14,
8816,42.18,
8817,53.06,
8818,62.89,
8819,68.92,
8820,69.6,
8821,63.5,
8822,51.33,
8823,34.4,
8824,15.16,
8825,-3.76,
8826,-20.52,
8827,-33.25,
8828,-41.6,
8829,-45.23,
8830,-45.23,
8831,-42.48,
8832,-38.63,
8833,-35.2,
8834,-33.22,
8835,-33.79,
8836,-36.59,
8837,-41.39,
8838,-46.65,
8839,-51.27,
8840,-53.61,
8841,-52.74,
8842,-48.82,
8843,-42.69,
8844,-36.83,
8845,-33.2,
8846,-33.81,
8847,-38.81,
8848,-47.76,
8849,-59.14,
8850,-70.81,
8851,-80.75,
8852,-86.07,
8853,-85.07,
8854,-76.27,
8855,-60.46,
8856,-39.27,
8857,-15.56,
8858,7.63,
8859,28.01,
8860,43.4,
8861,53.24,
8862,57.11,
8863,56.22,
8864,51.87,
8865,46.33,
8866,41.67,
8867,39.03,
8868,38.96,
8869,40.1,
8870,41.17,
8871,40.27,
8872,37.0,
8873,31.23,
8874,23.81,
8875,16.18,
8876,9.48,
8877,5.64,
8878,5.62,
8879,10.59,
8880,20.18,
8881,33.85,
8882,50.0,
8883,66.31,
8884,80.46,
8885,89.33,
8886,91.18,
8887,84.73,
8888,71.09,
8889,51.98,
8890,30.25,
8891,8.72,
8892,-10.61,
8893,-25.75,
8894,-36.14,
8895,-41.18,
8896,-41.77,
8897,-38.77,
8898,-34.01,
8899,-29.38,
8900,-26.32,
8901,-26.27,
8902,-29.14,
8903,-34.74,
8904,-41.51,
8905,-48.23,
8906,-53.11,
8907,-55.06,
8908,-54.05,
8909,-50.74,
8910,-47.51,
8911,-46.21,
8912,-48.83,
8913,-55.45,
8914,-65.55,
8915,-77.47,
8916,-88.82,
8917,-97.33,
8918,-99.96,
8919,-94.97,
8920,-81.12,
8921,-59.58,
8922,-32.51,
8923,-3.24,
8924,24.75,
8925,48.94,
8926,67.05,
8927,78.5,
8928,82.92,
8929,81.53,
8930,75.62,
8931,67.38,
8932,59.01,
8933,51.97,
8934,47.58,
8935,45.38,
8936,44.96,
8937,44.82,
8938,44.38,
8939,42.88,
8940,40.17,
8941,36.56,
8942,31.99,
8943,27.31,
8944,22.75,
8945,19.41,
8946,17.62,
8947,18.17,
8948,21.04,
8949,25.27,
8950,29.38,
8951,30.49,
8952,26.67,
8953,16.34,
8954,0.26,
8955,-20.03,
8956,-41.82,
8957,-62.18,
8958,-78.82,
8959,-89.2,
8960,-92.24,
8961,-87.05,
8962,-74.73,
8963,-56.81,
8964,-35.9,
8965,-14.86,
8966,4.04,
8967,18.5,
8968,27.81,
8969,31.47,
8970,30.64,
8971,26.56,
8972,21.33,
8973,16.89,
8974,14.37,
8975,14.6,
8976,16.77,
8977,20.11,
8978,22.97,
8979,24.67,
8980,24.41,
8981,22.14,
8982,18.49,
8983,14.14,
8984,10.85,
8985,9.74,
8986,12.27,
8987,18.51,
8988,28.4,
8989,40.82,
8990,53.76,
8991,65.02,
8992,71.35,
8993,70.75,
8994,61.8,
8995,45.62,
8996,24.27,
8997,1.0,
8998,-20.95,
8999,-39.36,
9000,-52.19,
9001,-58.97,
9002,-59.27,
9003,-54.14,
9004,-44.63,
9005,-32.71,
9006,-20.52,
9007,-9.88,
9008,-2.74,
9009,0.43,
9010,-0.65,
9011,-4.62,
9012,-10.17,
9013,-15.15,
9014,-17.92,
9015,-17.77,
9016,-14.62,
9017,-10.14,
9018,-5.87,
9019,-3.83,
9020,-4.54,
9021,-8.12,
9022,-13.49,
9023,-18.84,
9024,-22.38,
9025,-21.77,
9026,-16.01,
9027,-4.42,
9028,11.75,
9029,31.42,
9030,52.97,
9031,74.9,
9032,96.14,
9033,114.65,
9034,128.76,
9035,136.16,
9036,135.98,
9037,128.02,
9038,114.43,
9039,98.81,
9040,85.08,
9041,77.27,
9042,77.1,
9043,84.19,
9044,95.36,
9045,106.46,
9046,112.71,
9047,110.88,
9048,99.01,
9049,76.25,
9050,43.34,
9051,1.73,
9052,-45.36,
9053,-94.29,
9054,-140.72,
9055,-181.3,
9056,-213.63,
9057,-237.08,
9058,-252.79,
9059,-261.21,
9060,-262.11,
9061,-253.57,
9062,-233.72,
9063,-200.34,
9064,-159.06,
9065,-116.12,
9066,-78.87,
9067,-53.31,
9068,-40.39,
9069,-36.91,
9070,-36.62,
9071,-34.12,
9072,-28.12,
9073,-21.77,
9074,-20.35,
9075,-27.83,
9076,-44.21,
9077,-63.93,
9078,-78.97,
9079,-82.13,
9080,-71.21,
9081,-50.2,
9082,-27.15,
9083,-10.46,
9084,-4.56,
9085,-8.52,
9086,-16.13,
9087,-20.08,
9088,-15.5,
9089,-2.44,
9090,13.87,
9091,27.06,
9092,32.79,
9093,31.37,
9094,26.44,
9095,22.98,
9096,23.88,
9097,28.72,
9098,34.78,
9099,38.1,
9100,36.86,
9101,30.91,
9102,22.31,
9103,13.13,
9104,4.9,
9105,-1.6,
9106,-6.43,
9107,-8.76,
9108,-7.94,
9109,-2.45,
9110,8.09,
9111,23.67,
9112,42.91,
9113,63.46,
9114,82.83,
9115,97.89,
9116,106.86,
9117,108.41,
9118,103.5,
9119,93.8,
9120,82.15,
9121,71.34,
9122,62.79,
9123,57.15,
9124,53.0,
9125,49.08,
9126,43.71,
9127,36.97,
9128,29.45,
9129,22.27,
9130,16.28,
9131,10.82,
9132,5.18,
9133,-2.04,
9134,-10.59,
9135,-19.71,
9136,-27.21,
9137,-31.42,
9138,-32.12,
9139,-30.49,
9140,-29.81,
9141,-32.58,
9142,-40.76,
9143,-53.68,
9144,-69.71,
9145,-86.16,
9146,-100.3,
9147,-110.22,
9148,-113.64,
9149,-109.62,
9150,-97.2,
9151,-77.4,
9152,-51.76,
9153,-23.02,
9154,5.58,
9155,31.36,
9156,51.56,
9157,65.13,
9158,71.38,
9159,71.47,
9160,66.7,
9161,59.23,
9162,51.27,
9163,44.35,
9164,40.14,
9165,38.86,
9166,40.78,
9167,44.77,
9168,50.05,
9169,55.17,
9170,58.88,
9171,60.32,
9172,58.39,
9173,53.16,
9174,44.54,
9175,33.91,
9176,22.56,
9177,12.72,
9178,6.07,
9179,3.15,
9180,3.45,
9181,4.39,
9182,3.71,
9183,-1.0,
9184,-10.07,
9185,-23.07,
9186,-38.29,
9187,-53.35,
9188,-66.0,
9189,-73.27,
9190,-73.43,
9191,-65.15,
9192,-49.46,
9193,-28.26,
9194,-4.64,
9195,18.07,
9196,37.49,
9197,51.37,
9198,59.16,
9199,60.44,
9200,56.39,
9201,48.09,
9202,37.48,
9203,26.59,
9204,17.05,
9205,10.75,
9206,8.18,
9207,9.75,
9208,14.32,
9209,20.85,
9210,27.52,
9211,32.78,
9212,35.59,
9213,34.91,
9214,30.98,
9215,23.92,
9216,15.23,
9217,6.21,
9218,-1.03,
9219,-5.0,
9220,-5.43,
9221,-3.19,
9222,-1.26,
9223,-2.23,
9224,-8.58,
9225,-20.35,
9226,-36.56,
9227,-54.88,
9228,-72.5,
9229,-87.08,
9230,-95.86,
9231,-97.43,
9232,-90.61,
9233,-76.38,
9234,-56.37,
9235,-33.32,
9236,-10.31,
9237,10.37,
9238,26.46,
9239,37.34,
9240,42.53,
9241,43.1,
9242,40.01,
9243,34.99,
9244,29.85,
9245,25.86,
9246,24.59,
9247,26.23,
9248,31.02,
9249,37.73,
9250,45.44,
9251,52.46,
9252,57.53,
9253,59.93,
9254,59.03,
9255,55.54,
9256,49.95,
9257,43.88,
9258,38.48,
9259,35.46,
9260,35.75,
9261,38.95,
9262,43.55,
9263,46.04,
9264,43.57,
9265,33.77,
9266,17.09,
9267,-4.69,
9268,-28.46,
9269,-50.97,
9270,-69.91,
9271,-82.99,
9272,-89.35,
9273,-88.16,
9274,-80.28,
9275,-66.84,
9276,-50.09,
9277,-32.7,
9278,-16.92,
9279,-5.13,
9280,1.88,
9281,3.61,
9282,1.34,
9283,-3.66,
9284,-9.31,
9285,-13.77,
9286,-15.99,
9287,-15.08,
9288,-11.66,
9289,-6.18,
9290,-0.21,
9291,5.36,
9292,9.18,
9293,10.58,
9294,9.69,
9295,7.09,
9296,4.82,
9297,4.47,
9298,7.92,
9299,15.47,
9300,27.08,
9301,41.62,
9302,57.12,
9303,71.4,
9304,81.28,
9305,84.7,
9306,79.93,
9307,67.72,
9308,49.67,
9309,28.57,
9310,7.37,
9311,-11.89,
9312,-27.13,
9313,-37.78,
9314,-43.19,
9315,-44.16,
9316,-41.43,
9317,-36.64,
9318,-31.65,
9319,-27.97,
9320,-27.43,
9321,-30.43,
9322,-37.23,
9323,-46.46,
9324,-56.78,
9325,-66.04,
9326,-72.6,
9327,-75.77,
9328,-75.5,
9329,-73.43,
9330,-70.94,
9331,-70.03,
9332,-71.45,
9333,-75.88,
9334,-82.97,
9335,-91.38,
9336,-99.25,
9337,-103.33,
9338,-101.29,
9339,-91.12,
9340,-73.41,
9341,-49.75,
9342,-22.98,
9343,3.88,
9344,28.64,
9345,49.0,
9346,64.08,
9347,72.86,
9348,75.91,
9349,73.84,
9350,68.26,
9351,61.21,
9352,54.45,
9353,50.12,
9354,48.96,
9355,51.54,
9356,56.75,
9357,63.47,
9358,69.79,
9359,74.06,
9360,75.33,
9361,72.7,
9362,66.62,
9363,57.44,
9364,46.79,
9365,36.05,
9366,27.35,
9367,22.15,
9368,20.61,
9369,21.69,
9370,22.26,
9371,19.6,
9372,11.24,
9373,-2.73,
9374,-21.12,
9375,-41.39,
9376,-60.66,
9377,-76.68,
9378,-86.84,
9379,-89.88,
9380,-84.64,
9381,-72.01,
9382,-53.44,
9383,-31.59,
9384,-9.5,
9385,10.44,
9386,25.82,
9387,35.91,
9388,40.22,
9389,39.96,
9390,36.31,
9391,31.29,
9392,26.8,
9393,24.04,
9394,24.09,
9395,26.52,
9396,30.98,
9397,35.98,
9398,40.71,
9399,43.99,
9400,45.24,
9401,44.54,
9402,42.05,
9403,39.19,
9404,36.87,
9405,36.63,
9406,38.93,
9407,44.29,
9408,52.27,
9409,61.34,
9410,69.41,
9411,72.99,
9412,69.69,
9413,57.76,
9414,38.26,
9415,13.42,
9416,-13.32,
9417,-38.53,
9418,-59.94,
9419,-75.51,
9420,-84.74,
9421,-87.07,
9422,-83.44,
9423,-74.77,
9424,-63.02,
9425,-50.53,
9426,-39.36,
9427,-31.89,
9428,-28.92,
9429,-30.94,
9430,-36.57,
9431,-44.37,
9432,-51.98,
9433,-57.55,
9434,-60.18,
9435,-59.54,
9436,-56.99,
9437,-53.69,
9438,-51.52,
9439,-51.29,
9440,-53.84,
9441,-59.09,
9442,-65.96,
9443,-72.79,
9444,-76.52,
9445,-74.87,
9446,-65.86,
9447,-49.92,
9448,-28.46,
9449,-4.05,
9450,20.48,
9451,43.02,
9452,61.2,
9453,74.0,
9454,80.28,
9455,80.56,
9456,75.58,
9457,67.09,
9458,57.31,
9459,48.08,
9460,41.62,
9461,38.68,
9462,39.89,
9463,44.11,
9464,50.27,
9465,56.42,
9466,60.91,
9467,62.69,
9468,60.75,
9469,55.46,
9470,47.1,
9471,37.31,
9472,27.46,
9473,19.73,
9474,15.56,
9475,15.03,
9476,17.03,
9477,18.3,
9478,16.09,
9479,7.96,
9480,-5.93,
9481,-24.29,
9482,-44.56,
9483,-63.9,
9484,-80.14,
9485,-90.8,
9486,-94.7,
9487,-90.65,
9488,-79.4,
9489,-62.23,
9490,-41.64,
9491,-20.58,
9492,-1.5,
9493,13.08,
9494,22.31,
9495,25.63,
9496,24.29,
9497,19.65,
9498,13.91,
9499,9.08,
9500,6.34,
9501,6.59,
9502,9.07,
9503,13.13,
9504,17.11,
9505,20.21,
9506,21.35,
9507,20.22,
9508,17.29,
9509,13.3,
9510,10.3,
9511,9.72,
9512,13.25,
9513,21.02,
9514,32.85,
9515,47.47,
9516,62.84,
9517,76.83,
9518,86.31,
9519,89.3,
9520,84.22,
9521,71.82,
9522,53.71,
9523,32.6,
9524,11.37,
9525,-7.96,
9526,-23.31,
9527,-34.06,
9528,-39.53,
9529,-40.49,
9530,-37.71,
9531,-32.88,
9532,-27.87,
9533,-24.24,
9534,-23.79,
9535,-26.88,
9536,-33.75,
9537,-42.99,
9538,-53.19,
9539,-62.11,
9540,-68.07,
9541,-70.47,
9542,-69.53,
9543,-67.26,
9544,-65.44,
9545,-66.19,
9546,-70.09,
9547,-77.36,
9548,-87.09,
9549,-97.42,
9550,-106.2,
9551,-110.05,
9552,-106.7,
9553,-94.37,
9554,-73.94,
9555,-47.45,
9556,-18.2,
9557,10.45,
9558,36.17,
9559,56.8,
9560,71.77,
9561,80.42,
9562,83.57,
9563,81.98,
9564,77.38,
9565,71.77,
9566,66.78,
9567,64.13,
9568,63.95,
9569,66.29,
9570,69.74,
9571,73.45,
9572,76.11,
9573,76.98,
9574,75.88,
9575,72.46,
9576,67.45,
9577,61.12,
9578,54.87,
9579,49.63,
9580,46.96,
9581,47.59,
9582,50.91,
9583,55.19,
9584,56.73,
9585,52.7,
9586,40.9,
9587,22.11,
9588,-1.57,
9589,-26.81,
9590,-50.33,
9591,-70.02,
9592,-83.87,
9593,-91.26,
9594,-91.43,
9595,-85.13,
9596,-73.27,
9597,-57.87,
9598,-41.5,
9599,-26.47,
9600,-15.38,
9601,-9.23,
9602,-8.61,
9603,-12.22,
9604,-18.62,
9605,-25.49,
9606,-30.88,
9607,-33.69,
9608,-33.2,
9609,-30.21,
9610,-25.45,
9611,-20.61,
9612,-16.62,
9613,-14.81,
9614,-15.7,
9615,-18.86,
9616,-23.29,
9617,-26.42,
9618,-26.28,
9619,-20.85,
9620,-10.14,
9621,5.24,
9622,23.51,
9623,42.34,
9624,59.67,
9625,72.69,
9626,79.78,
9627,79.45,
9628,72.28,
9629,59.44,
9630,43.25,
9631,26.34,
9632,10.72,
9633,-1.41,
9634,-9.34,
9635,-12.41,
9636,-11.55,
9637,-7.71,
9638,-2.7,
9639,1.63,
9640,3.94,
9641,2.76,
9642,-1.93,
9643,-10.17,
9644,-20.44,
9645,-31.38,
9646,-40.8,
9647,-47.12,
9648,-49.89,
9649,-49.54,
9650,-48.44,
9651,-48.59,
9652,-52.18,
9653,-59.5,
9654,-70.29,
9655,-83.07,
9656,-95.61,
9657,-105.64,
9658,-110.01,
9659,-106.74,
9660,-94.3,
9661,-73.72,
9662,-47.02,
9663,-17.5,
9664,11.41,
9665,37.27,
9666,57.8,
9667,72.43,
9668,80.59,
9669,83.26,
9670,81.32,
9671,76.59,
9672,71.06,
9673,66.25,
9674,63.78,
9675,63.77,
9676,66.22,
9677,69.81,
9678,73.73,
9679,76.72,
9680,78.03,
9681,77.38,
9682,74.38,
9683,69.69,
9684,63.57,
9685,57.41,
9686,52.18,
9687,49.47,
9688,50.04,
9689,53.35,
9690,57.7,
9691,59.49,
9692,55.88,
9693,44.64,
9694,26.45,
9695,3.25,
9696,-21.75,
9697,-45.36,
9698,-65.45,
9699,-79.95,
9700,-88.15,
9701,-89.23,
9702,-83.89,
9703,-73.04,
9704,-58.66,
9705,-43.25,
9706,-29.09,
9707,-18.69,
9708,-13.01,
9709,-12.68,
9710,-16.45,
9711,-22.92,
9712,-29.85,
9713,-35.28,
9714,-38.12,
9715,-37.56,
9716,-34.36,
9717,-29.2,
9718,-23.77,
9719,-19.12,
9720,-16.63,
9721,-16.95,
9722,-19.68,
9723,-23.79,
9724,-26.68,
9725,-26.33,
9726,-20.69,
9727,-9.8,
9728,5.71,
9729,24.08,
9730,43.04,
9731,60.58,
9732,73.99,
9733,81.69,
9734,82.15,
9735,75.86,
9736,63.88,
9737,48.41,
9738,32.07,
9739,16.91,
9740,5.24,
9741,-2.1,
9742,-4.36,
9743,-2.49,
9744,2.47,
9745,8.54,
9746,13.79,
9747,16.79,
9748,16.17,
9749,12.01,
9750,4.45,
9751,-4.88,
9752,-14.52,
9753,-22.28,
9754,-26.65,
9755,-27.44,
9756,-25.49,
9757,-23.65,
9758,-24.31,
9759,-29.74,
9760,-39.95,
9761,-54.11,
9762,-70.15,
9763,-85.57,
9764,-98.24,
9765,-105.41,
9766,-105.55,
9767,-97.3,
9768,-81.48,
9769,-59.65,
9770,-34.62,
9771,-9.53,
9772,13.12,
9773,30.85,
9774,42.81,
9775,48.38,
9776,48.69,
9777,44.96,
9778,39.4,
9779,34.12,
9780,30.52,
9781,29.74,
9782,31.21,
9783,34.36,
9784,37.53,
9785,39.86,
9786,40.24,
9787,38.34,
9788,34.66,
9789,29.95,
9790,26.17,
9791,24.67,
9792,27.11,
9793,33.59,
9794,43.98,
9795,57.16,
9796,71.2,
9797,83.98,
9798,92.4,
9799,94.43,
9800,88.41,
9801,75.09,
9802,56.04,
9803,33.98,
9804,11.8,
9805,-8.44,
9806,-24.61,
9807,-36.01,
9808,-41.87,
9809,-42.97,
9810,-40.13,
9811,-35.19,
9812,-30.13,
9813,-26.58,
9814,-26.26,
9815,-29.37,
9816,-35.95,
9817,-44.46,
9818,-53.47,
9819,-60.82,
9820,-65.05,
9821,-65.87,
9822,-63.9,
9823,-61.52,
9824,-60.75,
9825,-63.67,
9826,-70.45,
9827,-80.68,
9828,-92.79,
9829,-104.53,
9830,-113.69,
9831,-117.21,
9832,-113.22,
9833,-100.24,
9834,-79.26,
9835,-52.2,
9836,-22.28,
9837,7.16,
9838,33.61,
9839,54.73,
9840,69.77,
9841,78.09,
9842,80.69,
9843,78.62,
9844,73.95,
9845,68.84,
9846,64.85,
9847,63.4,
9848,64.17,
9849,66.79,
