,value,experiments
0,2097152.0,
1,2097152.0,
2,2148668.0,
3,2148687.0,
4,2148681.0,
5,2148592.0,
6,2148634.0,
7,2148695.0,
8,2148646.0,
9,2148714.0,
10,2148648.0,
11,2119769.0,
12,2119802.0,
13,2119788.0,
14,2119845.0,
15,2119786.0,
16,2107689.0,
17,2107603.0,
18,2107684.0,
19,2107695.0,
20,2107604.0,
21,2124100.0,
22,2124174.0,
23,2124145.0,
24,2124130.0,
25,2124093.0,
26,2124140.0,
27,2124083.0,
28,2124087.0,
29,2124259.0,
30,2124220.0,
31,2124095.0,
32,2124205.0,
33,2124106.0,
34,2124029.0,
35,2124048.0,
36,2124008.0,
37,2124050.0,
38,2124111.0,
39,2124051.0,
40,2124075.0,
41,2124003.0,
42,2124189.0,
43,2124110.0,
44,2123973.0,
45,2124106.0,
46,2124226.0,
47,2124008.0,
48,2124066.0,
49,2124160.0,
50,2124171.0,
51,2124108.0,
52,2124020.0,
53,2123988.0,
54,2124047.0,
55,2123915.0,
56,2124033.0,
57,2124014.0,
58,2124012.0,
59,2124024.0,
60,2123940.0,
61,2124122.0,
62,2124021.0,
63,2124021.0,
64,2124019.0,
65,2124009.0,
66,2124121.0,
67,2124028.0,
68,2123992.0,
69,2123978.0,
70,2124003.0,
71,2123972.0,
72,2123932.0,
73,2123985.0,
74,2123923.0,
75,2123965.0,
76,2123954.0,
77,2124147.0,
78,2123966.0,
79,2123969.0,
80,2123926.0,
81,2123970.0,
82,2123927.0,
83,2123892.0,
84,2123964.0,
85,2123952.0,
86,2123940.0,
87,2124128.0,
88,2123958.0,
89,2123989.0,
90,2124027.0,
91,2124037.0,
92,2124172.0,
93,2124038.0,
94,2123930.0,
95,2123979.0,
96,2124075.0,
97,2123855.0,
98,2123974.0,
99,2124144.0,
100,2123904.0,
101,2123997.0,
102,2123918.0,
103,2124116.0,
104,2123970.0,
105,2123950.0,
106,2123937.0,
107,2123883.0,
108,2124158.0,
109,2123910.0,
110,2123855.0,
111,2123844.0,
112,2123904.0,
113,2123951.0,
114,2123931.0,
115,2124025.0,
116,2123885.0,
117,2124096.0,
118,2123954.0,
119,2124094.0,
120,2123947.0,
121,2124049.0,
122,2123959.0,
123,2124031.0,
124,2123920.0,
125,2123904.0,
126,2123975.0,
127,2123901.0,
128,2123885.0,
129,2123857.0,
130,2123985.0,
131,2124080.0,
132,2123977.0,
133,2124001.0,
134,2123908.0,
135,2123897.0,
136,2123856.0,
137,2123964.0,
138,2124002.0,
139,2123938.0,
140,2123870.0,
141,2123884.0,
142,2124145.0,
143,2123889.0,
144,2123855.0,
145,2123866.0,
146,2124063.0,
147,2123871.0,
148,2123828.0,
149,2123924.0,
150,2123872.0,
151,2123838.0,
152,2123825.0,
153,2123938.0,
154,2124003.0,
155,2123969.0,
156,2123849.0,
157,2123789.0,
158,2123949.0,
159,2123848.0,
160,2123830.0,
161,2123932.0,
162,2123866.0,
163,2123853.0,
164,2123936.0,
165,2123944.0,
166,2123891.0,
167,2123932.0,
168,2123817.0,
169,2123935.0,
170,2124016.0,
171,2123797.0,
172,2123839.0,
173,2124014.0,
174,2123876.0,
175,2123887.0,
176,2123976.0,
177,2123816.0,
178,2123861.0,
179,2124019.0,
180,2123818.0,
181,2123834.0,
182,2123938.0,
183,2124012.0,
184,2123863.0,
185,2124003.0,
186,2123923.0,
187,2123855.0,
188,2123991.0,
189,2123875.0,
190,2123863.0,
191,2123983.0,
192,2123792.0,
193,2124020.0,
194,2123899.0,
195,2123966.0,
196,2123832.0,
197,2123830.0,
198,2124022.0,
199,2123811.0,
200,2123965.0,
201,2123985.0,
202,2123890.0,
203,2123757.0,
204,2123832.0,
205,2123925.0,
206,2123770.0,
207,2123827.0,
208,2123924.0,
209,2123788.0,
210,2123867.0,
211,2123876.0,
212,2123785.0,
213,2123995.0,
214,2123958.0,
215,2123856.0,
216,2123835.0,
217,2123827.0,
218,2123797.0,
219,2123813.0,
220,2123962.0,
221,2123868.0,
222,2123876.0,
223,2123827.0,
224,2123989.0,
225,2123939.0,
226,2123785.0,
227,2123989.0,
228,2123779.0,
229,2123822.0,
230,2123780.0,
231,2123754.0,
232,2123753.0,
233,2124025.0,
234,2123961.0,
235,2123748.0,
236,2123713.0,
237,2123820.0,
238,2123917.0,
239,2123857.0,
240,2123929.0,
241,2123755.0,
242,2123842.0,
243,2123796.0,
244,2123913.0,
245,2123728.0,
246,2123776.0,
247,2123774.0,
248,2123780.0,
249,2123793.0,
250,2123879.0,
251,2123935.0,
252,2123768.0,
253,2123834.0,
254,2123795.0,
255,2123948.0,
256,2124012.0,
257,2123711.0,
258,2123782.0,
259,2123768.0,
260,2124013.0,
261,2123724.0,
262,2123759.0,
263,2123711.0,
264,2123952.0,
265,2123921.0,
266,2123686.0,
267,2123845.0,
268,2123912.0,
269,2123732.0,
270,2123951.0,
271,2123710.0,
272,2123765.0,
273,2123826.0,
274,2123807.0,
275,2123893.0,
276,2123749.0,
277,2123746.0,
278,2123857.0,
279,2123725.0,
280,2123786.0,
281,2123987.0,
282,2123894.0,
283,2123830.0,
284,2123920.0,
285,2123821.0,
286,2123958.0,
287,2123750.0,
288,2123757.0,
289,2123927.0,
290,2123745.0,
291,2123930.0,
292,2123688.0,
293,2123863.0,
294,2123860.0,
295,2123726.0,
296,2123940.0,
297,2123671.0,
298,2123787.0,
299,2123891.0,
300,2123777.0,
301,2123767.0,
302,2123983.0,
303,2123730.0,
304,2123774.0,
305,2123854.0,
306,2123797.0,
307,2123957.0,
308,2123693.0,
309,2123785.0,
310,2123904.0,
311,2123823.0,
312,2123696.0,
313,2123741.0,
314,2123871.0,
315,2123845.0,
316,2123730.0,
317,2123764.0,
318,2123871.0,
319,2123720.0,
320,2123864.0,
321,2123942.0,
322,2123915.0,
323,2123829.0,
324,2123811.0,
325,2123745.0,
326,2123800.0,
327,2123765.0,
328,2123747.0,
329,2123763.0,
330,2123751.0,
331,2123733.0,
332,2123773.0,
333,2123875.0,
334,2123632.0,
335,2123754.0,
336,2124003.0,
337,2123784.0,
338,2123870.0,
339,2123771.0,
340,2123928.0,
341,2123707.0,
342,2123898.0,
343,2123879.0,
344,2123672.0,
345,2123674.0,
346,2123727.0,
347,2123738.0,
348,2123837.0,
349,2123801.0,
350,2123748.0,
351,2123749.0,
352,2123695.0,
353,2123917.0,
354,2123875.0,
355,2123870.0,
356,2123702.0,
357,2123717.0,
358,2123886.0,
359,2123656.0,
360,2123792.0,
361,2123771.0,
362,2123718.0,
363,2123918.0,
364,2123869.0,
365,2123781.0,
366,2123807.0,
367,2123702.0,
368,2123810.0,
369,2123683.0,
370,2123881.0,
371,2123653.0,
372,2123921.0,
373,2123676.0,
374,2123886.0,
375,2123687.0,
376,2123810.0,
377,2123733.0,
378,2123861.0,
379,2123687.0,
380,2123628.0,
381,2123731.0,
382,2124012.0,
383,2123859.0,
384,2123695.0,
385,2123753.0,
386,2123840.0,
387,2123877.0,
388,2123726.0,
389,2123677.0,
390,2123886.0,
391,2123734.0,
392,2123679.0,
393,2123905.0,
394,2123849.0,
395,2123792.0,
396,2123689.0,
397,2123790.0,
398,2123834.0,
399,2123708.0,
400,2123861.0,
401,2123722.0,
402,2123707.0,
403,2123785.0,
404,2123728.0,
405,2123818.0,
406,2123691.0,
407,2123818.0,
408,2123757.0,
409,2123787.0,
410,2123921.0,
411,2123712.0,
412,2123759.0,
413,2123720.0,
414,2123928.0,
415,2123710.0,
416,2123641.0,
417,2123714.0,
418,2123725.0,
419,2123660.0,
420,2123790.0,
421,2123644.0,
422,2123895.0,
423,2123777.0,
424,2123718.0,
425,2123688.0,
426,2123741.0,
427,2123742.0,
428,2123770.0,
429,2123702.0,
430,2123825.0,
431,2123629.0,
432,2123782.0,
433,2123681.0,
434,2123833.0,
435,2123842.0,
436,2123718.0,
437,2123669.0,
438,2123827.0,
439,2123684.0,
440,2123896.0,
441,2123707.0,
442,2123720.0,
443,2123797.0,
444,2123645.0,
445,2123797.0,
446,2123716.0,
447,2123900.0,
448,2123689.0,
449,2123858.0,
450,2123721.0,
451,2123882.0,
452,2123745.0,
453,2123659.0,
454,2123733.0,
455,2123666.0,
456,2123832.0,
457,2123641.0,
458,2123834.0,
459,2123844.0,
460,2123678.0,
461,2123831.0,
462,2123639.0,
463,2123815.0,
464,2123751.0,
465,2123648.0,
466,2123764.0,
467,2123816.0,
468,2123692.0,
469,2123730.0,
470,2123917.0,
471,2123661.0,
472,2123793.0,
473,2123807.0,
474,2123684.0,
475,2123745.0,
476,2123659.0,
477,2123755.0,
478,2123651.0,
479,2123855.0,
480,2123662.0,
481,2123759.0,
482,2123741.0,
483,2123826.0,
484,2123713.0,
485,2123785.0,
486,2123738.0,
487,2123671.0,
488,2123828.0,
489,2123716.0,
490,2123858.0,
491,2123635.0,
492,2123773.0,
493,2123709.0,
494,2123771.0,
495,2123750.0,
496,2123806.0,
497,2123829.0,
498,2123719.0,
499,2123622.0,
500,2123672.0,
501,2123929.0,
502,2123669.0,
503,2123809.0,
504,2123735.0,
505,2123736.0,
506,2123892.0,
507,2123735.0,
508,2123729.0,
509,2123813.0,
510,2123685.0,
511,2123674.0,
512,2123751.0,
513,2123682.0,
514,2123825.0,
515,2123695.0,
516,2123850.0,
517,2123577.0,
518,2123791.0,
519,2123689.0,
520,2123633.0,
521,2123794.0,
522,2123727.0,
523,2123674.0,
524,2123621.0,
525,2123689.0,
526,2123615.0,
527,2123681.0,
528,2123753.0,
529,2123676.0,
530,2123725.0,
531,2123646.0,
532,2123713.0,
533,2123646.0,
534,2123671.0,
535,2123850.0,
536,2123670.0,
537,2123694.0,
538,2123826.0,
539,2123722.0,
540,2123719.0,
541,2123845.0,
542,2123732.0,
543,2123879.0,
544,2123738.0,
545,2123801.0,
546,2123682.0,
547,2123776.0,
548,2123761.0,
549,2123796.0,
550,2123604.0,
551,2123795.0,
552,2123649.0,
553,2123751.0,
554,2123728.0,
555,2123800.0,
556,2123694.0,
557,2123720.0,
558,2123672.0,
559,2123540.0,
560,2123708.0,
561,2123896.0,
562,2123658.0,
563,2123766.0,
564,2123693.0,
565,2123870.0,
566,2123727.0,
567,2123670.0,
568,2123808.0,
569,2123664.0,
570,2123626.0,
571,2123697.0,
572,2123794.0,
573,2123858.0,
574,2123690.0,
575,2123767.0,
576,2123703.0,
577,2123763.0,
578,2123656.0,
579,2123695.0,
580,2123824.0,
581,2123590.0,
582,2123792.0,
583,2123722.0,
584,2123658.0,
585,2123813.0,
586,2123587.0,
587,2123825.0,
588,2123722.0,
589,2123839.0,
590,2123684.0,
591,2123652.0,
592,2123810.0,
593,2123796.0,
594,2123723.0,
595,2123679.0,
596,2123841.0,
597,2123759.0,
598,2123574.0,
599,2123851.0,
600,2123652.0,
601,2123815.0,
602,2123612.0,
603,2123712.0,
604,2123850.0,
605,2123835.0,
606,2123701.0,
607,2123787.0,
608,2123685.0,
609,2123815.0,
610,2123608.0,
611,2123702.0,
612,2123618.0,
613,2123681.0,
614,2123609.0,
615,2123679.0,
616,2123733.0,
617,2123867.0,
618,2123681.0,
619,2123842.0,
620,2123656.0,
621,2123697.0,
622,2123828.0,
623,2123690.0,
624,2123787.0,
625,2123835.0,
626,2123726.0,
627,2123658.0,
628,2123863.0,
629,2123630.0,
630,2123666.0,
631,2123682.0,
632,2123639.0,
633,2123738.0,
634,2123584.0,
635,2123592.0,
636,2123653.0,
637,2123627.0,
638,2123745.0,
639,2123662.0,
640,2123686.0,
641,2123700.0,
642,2123638.0,
643,2123641.0,
644,2123813.0,
645,2123743.0,
646,2123579.0,
647,2123595.0,
648,2123890.0,
649,2123645.0,
650,2123682.0,
651,2123626.0,
652,2123736.0,
653,2123643.0,
654,2123558.0,
655,2123670.0,
656,2123647.0,
657,2123672.0,
658,2123797.0,
659,2123599.0,
660,2123626.0,
661,2123714.0,
662,2123736.0,
663,2123710.0,
664,2123718.0,
665,2123589.0,
666,2123872.0,
667,2123585.0,
668,2123650.0,
669,2123741.0,
670,2123628.0,
671,2123622.0,
672,2123760.0,
673,2123680.0,
674,2123648.0,
675,2123722.0,
676,2123564.0,
677,2123571.0,
678,2123600.0,
679,2123856.0,
680,2123738.0,
681,2123651.0,
682,2123542.0,
683,2123534.0,
684,2123697.0,
685,2123638.0,
686,2123689.0,
687,2123785.0,
688,2123657.0,
689,2123688.0,
690,2123822.0,
691,2123611.0,
692,2123660.0,
693,2123772.0,
694,2123728.0,
695,2123547.0,
696,2123712.0,
697,2123773.0,
698,2123781.0,
699,2123566.0,
700,2123640.0,
701,2123587.0,
702,2123855.0,
703,2123732.0,
704,2123855.0,
705,2123719.0,
706,2123578.0,
707,2123611.0,
708,2123657.0,
709,2123836.0,
710,2123725.0,
711,2123660.0,
712,2123721.0,
713,2123832.0,
714,2123527.0,
715,2123592.0,
716,2123658.0,
717,2123624.0,
718,2123759.0,
719,2123794.0,
720,2123625.0,
721,2123763.0,
722,2123840.0,
723,2123602.0,
724,2123613.0,
725,2123546.0,
726,2123718.0,
727,2123823.0,
728,2123604.0,
729,2123623.0,
730,2123644.0,
731,2123749.0,
732,2123527.0,
733,2123679.0,
734,2123636.0,
735,2123747.0,
736,2123793.0,
737,2123628.0,
738,2123574.0,
739,2123755.0,
740,2123733.0,
741,2123618.0,
742,2123682.0,
743,2123837.0,
744,2123654.0,
745,2123640.0,
746,2123757.0,
747,2123610.0,
748,2123610.0,
749,2123820.0,
750,2123582.0,
751,2123740.0,
752,2123813.0,
753,2123567.0,
754,2123608.0,
755,2123758.0,
756,2123625.0,
757,2123765.0,
758,2123601.0,
759,2123706.0,
760,2123760.0,
761,2123680.0,
762,2123844.0,
763,2123777.0,
764,2123554.0,
765,2123632.0,
766,2123802.0,
767,2123775.0,
768,2123613.0,
769,2123797.0,
770,2123772.0,
771,2123661.0,
772,2123768.0,
773,2123659.0,
774,2123733.0,
775,2123731.0,
776,2123664.0,
777,2123655.0,
778,2123744.0,
779,2123722.0,
780,2123729.0,
781,2123666.0,
782,2123551.0,
783,2123657.0,
784,2123683.0,
785,2123658.0,
786,2123663.0,
787,2123625.0,
788,2123787.0,
789,2123646.0,
790,2123760.0,
791,2123606.0,
792,2123608.0,
793,2123563.0,
794,2123602.0,
795,2123797.0,
796,2123817.0,
797,2123698.0,
798,2123669.0,
799,2123792.0,
800,2123804.0,
801,2123638.0,
802,2123623.0,
803,2123747.0,
804,2123768.0,
805,2123581.0,
806,2123645.0,
807,2123624.0,
808,2123576.0,
809,2123677.0,
810,2123736.0,
811,2123612.0,
812,2123570.0,
813,2123606.0,
814,2123689.0,
815,2123766.0,
816,2123577.0,
817,2123700.0,
818,2123803.0,
819,2123603.0,
820,2123595.0,
821,2123637.0,
822,2123562.0,
823,2123560.0,
824,2123659.0,
825,2123762.0,
826,2123629.0,
827,2123608.0,
828,2123745.0,
829,2123750.0,
830,2123690.0,
831,2123647.0,
832,2123793.0,
833,2123781.0,
834,2123654.0,
835,2123776.0,
836,2123637.0,
837,2123591.0,
838,2123715.0,
839,2123594.0,
840,2123738.0,
841,2123778.0,
842,2123497.0,
843,2123597.0,
844,2123735.0,
845,2123527.0,
846,2123586.0,
847,2123821.0,
848,2123614.0,
849,2123799.0,
850,2123655.0,
851,2123591.0,
852,2123627.0,
853,2123698.0,
854,2123610.0,
855,2123587.0,
856,2123591.0,
857,2123606.0,
858,2123616.0,
859,2123662.0,
860,2123641.0,
861,2123648.0,
862,2123583.0,
863,2123642.0,
864,2123591.0,
865,2123573.0,
866,2123669.0,
867,2123591.0,
868,2123751.0,
869,2123655.0,
870,2123731.0,
871,2123656.0,
872,2123598.0,
873,2123590.0,
874,2123560.0,
875,2123575.0,
876,2123779.0,
877,2123630.0,
878,2123635.0,
879,2123726.0,
880,2123546.0,
881,2123557.0,
882,2123611.0,
883,2123716.0,
884,2123534.0,
885,2123807.0,
886,2123590.0,
887,2123567.0,
888,2123578.0,
889,2123644.0,
890,2123778.0,
891,2123796.0,
892,2123559.0,
893,2123517.0,
894,2123739.0,
895,2123630.0,
896,2123680.0,
897,2123786.0,
898,2123749.0,
899,2123737.0,
900,2123655.0,
901,2123601.0,
902,2123522.0,
903,2123622.0,
904,2123670.0,
905,2123769.0,
906,2123709.0,
907,2123799.0,
908,2123712.0,
909,2123548.0,
910,2123664.0,
911,2123727.0,
912,2123712.0,
913,2123818.0,
914,2123661.0,
915,2123733.0,
916,2123651.0,
917,2123667.0,
918,2123624.0,
919,2123615.0,
920,2123703.0,
921,2123612.0,
922,2123600.0,
923,2123705.0,
924,2123621.0,
925,2123552.0,
926,2123818.0,
927,2123639.0,
928,2123662.0,
929,2123671.0,
930,2123553.0,
931,2123584.0,
932,2123536.0,
933,2123769.0,
934,2123609.0,
935,2123567.0,
936,2123577.0,
937,2123803.0,
938,2123731.0,
939,2123631.0,
940,2123544.0,
941,2123659.0,
942,2123523.0,
943,2123575.0,
944,2123784.0,
945,2123579.0,
946,2123616.0,
947,2123806.0,
948,2123723.0,
949,2123618.0,
950,2123711.0,
951,2123547.0,
952,2123594.0,
953,2123598.0,
954,2123620.0,
955,2123739.0,
956,2123539.0,
957,2123651.0,
958,2123594.0,
959,2123624.0,
960,2123779.0,
961,2123634.0,
962,2123798.0,
963,2123850.0,
964,2123562.0,
965,2123668.0,
966,2123737.0,
967,2123521.0,
968,2123540.0,
969,2123662.0,
970,2123651.0,
971,2123558.0,
972,2123753.0,
973,2123540.0,
974,2123844.0,
975,2123637.0,
976,2123600.0,
977,2123783.0,
978,2123591.0,
979,2123568.0,
980,2123776.0,
981,2123583.0,
982,2123641.0,
983,2123884.0,
984,2123585.0,
985,2123682.0,
986,2123674.0,
987,2123751.0,
988,2123586.0,
989,2123641.0,
990,2123658.0,
991,2123602.0,
992,2123776.0,
993,2123567.0,
994,2123678.0,
995,2123793.0,
996,2123645.0,
997,2123686.0,
998,2123625.0,
999,2123742.0,
1000,2123587.0,
1001,2123560.0,
1002,2123739.0,
1003,2123776.0,
1004,2123616.0,
1005,2123560.0,
1006,2123610.0,
1007,2123515.0,
1008,2123546.0,
1009,2123738.0,
1010,2123562.0,
1011,2123640.0,
1012,2123607.0,
1013,2123806.0,
1014,2123602.0,
1015,2123612.0,
1016,2123590.0,
1017,2123787.0,
1018,2123591.0,
1019,2123664.0,
1020,2123667.0,
1021,2123800.0,
1022,2123649.0,
1023,2123632.0,
1024,2123815.0,
1025,2123558.0,
1026,2123680.0,
1027,2123546.0,
1028,2123626.0,
1029,2123573.0,
1030,2123629.0,
1031,2123586.0,
1032,2123643.0,
1033,2123516.0,
1034,2123612.0,
1035,2123741.0,
1036,2123496.0,
1037,2123512.0,
1038,2123502.0,
1039,2123741.0,
1040,2123516.0,
1041,2123614.0,
1042,2123485.0,
1043,2123629.0,
1044,2123735.0,
1045,2123558.0,
1046,2123658.0,
1047,2123565.0,
1048,2123803.0,
1049,2123527.0,
1050,2123740.0,
1051,2123620.0,
1052,2123625.0,
1053,2123827.0,
1054,2123798.0,
1055,2123582.0,
1056,2123721.0,
1057,2123657.0,
1058,2123813.0,
1059,2123620.0,
1060,2123479.0,
1061,2123720.0,
1062,2123552.0,
1063,2123718.0,
1064,2123576.0,
1065,2123598.0,
1066,2123680.0,
1067,2123459.0,
1068,2123726.0,
1069,2123651.0,
1070,2123527.0,
1071,2123654.0,
1072,2123612.0,
1073,2123679.0,
1074,2123552.0,
1075,2123695.0,
1076,2123555.0,
1077,2123557.0,
1078,2123844.0,
1079,2123530.0,
1080,2123761.0,
1081,2123633.0,
1082,2123720.0,
1083,2123637.0,
1084,2123470.0,
1085,2123600.0,
1086,2123586.0,
1087,2123683.0,
1088,2123555.0,
1089,2123689.0,
1090,2123585.0,
1091,2123489.0,
1092,2123705.0,
1093,2123633.0,
1094,2123621.0,
1095,2123737.0,
1096,2123648.0,
1097,2123558.0,
1098,2123751.0,
1099,2123651.0,
1100,2123580.0,
1101,2123753.0,
1102,2123553.0,
1103,2123713.0,
1104,2123573.0,
1105,2123672.0,
1106,2123582.0,
1107,2123698.0,
1108,2123711.0,
1109,2123698.0,
1110,2123601.0,
1111,2123571.0,
1112,2123605.0,
1113,2123650.0,
1114,2123554.0,
1115,2123586.0,
1116,2123772.0,
1117,2123574.0,
1118,2123722.0,
1119,2123712.0,
1120,2123535.0,
1121,2123782.0,
1122,2123548.0,
1123,2123571.0,
1124,2123773.0,
1125,2123566.0,
1126,2123585.0,
1127,2123752.0,
1128,2123570.0,
1129,2123740.0,
1130,2123756.0,
1131,2123741.0,
1132,2123565.0,
1133,2123747.0,
1134,2123694.0,
1135,2123512.0,
1136,2123648.0,
1137,2123629.0,
1138,2123695.0,
1139,2123622.0,
1140,2123768.0,
1141,2123759.0,
1142,2123602.0,
1143,2123557.0,
1144,2123683.0,
1145,2123579.0,
1146,2123770.0,
1147,2123570.0,
1148,2123717.0,
1149,2123557.0,
1150,2123541.0,
1151,2123758.0,
1152,2123578.0,
1153,2123663.0,
1154,2123558.0,
1155,2123707.0,
1156,2123684.0,
1157,2123568.0,
1158,2123693.0,
1159,2123633.0,
1160,2123574.0,
1161,2123693.0,
1162,2123558.0,
1163,2123529.0,
1164,2123743.0,
1165,2123569.0,
1166,2123763.0,
1167,2123570.0,
1168,2123556.0,
1169,2123628.0,
1170,2123481.0,
1171,2123604.0,
1172,2123644.0,
1173,2123712.0,
1174,2123558.0,
1175,2123514.0,
1176,2123666.0,
1177,2123571.0,
1178,2123794.0,
1179,2123616.0,
1180,2123611.0,
1181,2123578.0,
1182,2123587.0,
1183,2123595.0,
1184,2123717.0,
1185,2123591.0,
1186,2123728.0,
1187,2123595.0,
1188,2123766.0,
1189,2123537.0,
1190,2123731.0,
1191,2123601.0,
1192,2123538.0,
1193,2123664.0,
1194,2123471.0,
1195,2123590.0,
1196,2123520.0,
1197,2123678.0,
1198,2123580.0,
1199,2123495.0,
1200,2123709.0,
1201,2123541.0,
1202,2123595.0,
1203,2123530.0,
1204,2123672.0,
1205,2123767.0,
1206,2123796.0,
1207,2123567.0,
1208,2123615.0,
1209,2123575.0,
1210,2123668.0,
1211,2123656.0,
1212,2123640.0,
1213,2123731.0,
1214,2123770.0,
1215,2123487.0,
1216,2123663.0,
1217,2123580.0,
1218,2123583.0,
1219,2123745.0,
1220,2123797.0,
1221,2123566.0,
1222,2123540.0,
1223,2123625.0,
1224,2123600.0,
1225,2123599.0,
1226,2123545.0,
1227,2123543.0,
1228,2123525.0,
1229,2123742.0,
1230,2123551.0,
1231,2123616.0,
1232,2123541.0,
1233,2123595.0,
1234,2123606.0,
1235,2123486.0,
1236,2123554.0,
1237,2123574.0,
1238,2123666.0,
1239,2123609.0,
1240,2123633.0,
1241,2123673.0,
1242,2123577.0,
1243,2123779.0,
1244,2123764.0,
1245,2123691.0,
1246,2123543.0,
1247,2123636.0,
1248,2123734.0,
1249,2123703.0,
1250,2123504.0,
1251,2123625.0,
1252,2123484.0,
1253,2123590.0,
1254,2123684.0,
1255,2123557.0,
1256,2123642.0,
1257,2123580.0,
1258,2123701.0,
1259,2123636.0,
1260,2123578.0,
1261,2123728.0,
1262,2123642.0,
1263,2123563.0,
1264,2123529.0,
1265,2123647.0,
1266,2123768.0,
1267,2123552.0,
1268,2123481.0,
1269,2123572.0,
1270,2123579.0,
1271,2123721.0,
1272,2123724.0,
1273,2123654.0,
1274,2123524.0,
1275,2123498.0,
1276,2123560.0,
1277,2123590.0,
1278,2123713.0,
1279,2123607.0,
1280,2123563.0,
1281,2123641.0,
1282,2123527.0,
1283,2123513.0,
1284,2123617.0,
1285,2123693.0,
1286,2123731.0,
1287,2123512.0,
1288,2123514.0,
1289,2123809.0,
1290,2123741.0,
1291,2123711.0,
1292,2123578.0,
1293,2123781.0,
1294,2123700.0,
1295,2123555.0,
1296,2123690.0,
1297,2123498.0,
1298,2123532.0,
1299,2123531.0,
1300,2123594.0,
1301,2123717.0,
1302,2123565.0,
1303,2123581.0,
1304,2123625.0,
1305,2123591.0,
1306,2123662.0,
1307,2123525.0,
1308,2123505.0,
1309,2123719.0,
1310,2123601.0,
1311,2123715.0,
1312,2123580.0,
1313,2123779.0,
1314,2123762.0,
1315,2123514.0,
1316,2123759.0,
1317,2123741.0,
1318,2123664.0,
1319,2123593.0,
1320,2123572.0,
1321,2123750.0,
1322,2123559.0,
1323,2123618.0,
1324,2123764.0,
1325,2123468.0,
1326,2123675.0,
1327,2123760.0,
1328,2123485.0,
1329,2123580.0,
1330,2123680.0,
1331,2123585.0,
1332,2123684.0,
1333,2123518.0,
1334,2123575.0,
1335,2123644.0,
1336,2123577.0,
1337,2123568.0,
1338,2123662.0,
1339,2123534.0,
1340,2123575.0,
1341,2123764.0,
1342,2123573.0,
1343,2123685.0,
1344,2123571.0,
1345,2123671.0,
1346,2123570.0,
1347,2123618.0,
1348,2123603.0,
1349,2123707.0,
1350,2123549.0,
1351,2123699.0,
1352,2123539.0,
1353,2123540.0,
1354,2123713.0,
1355,2123550.0,
1356,2123687.0,
1357,2123612.0,
1358,2123482.0,
1359,2123736.0,
1360,2123576.0,
1361,2123568.0,
1362,2123652.0,
1363,2123699.0,
1364,2123484.0,
1365,2123558.0,
1366,2123704.0,
1367,2123546.0,
1368,2123538.0,
1369,2123628.0,
1370,2123678.0,
1371,2123656.0,
1372,2123553.0,
1373,2123727.0,
1374,2123598.0,
1375,2123583.0,
1376,2123731.0,
1377,2123512.0,
1378,2123680.0,
1379,2123510.0,
1380,2123620.0,
1381,2123704.0,
1382,2123559.0,
1383,2123698.0,
1384,2123593.0,
1385,2123659.0,
1386,2123533.0,
1387,2123572.0,
1388,2123572.0,
1389,2123723.0,
1390,2123542.0,
1391,2123602.0,
1392,2123491.0,
1393,2123804.0,
1394,2123558.0,
1395,2123782.0,
1396,2123572.0,
1397,2123538.0,
1398,2123550.0,
1399,2123527.0,
1400,2123720.0,
1401,2123426.0,
1402,2123676.0,
1403,2123531.0,
1404,2123715.0,
1405,2123635.0,
1406,2123562.0,
1407,2123518.0,
1408,2123533.0,
1409,2123700.0,
1410,2123570.0,
1411,2123587.0,
1412,2123428.0,
1413,2123678.0,
1414,2123511.0,
1415,2123618.0,
1416,2123654.0,
1417,2123562.0,
1418,2123700.0,
1419,2123521.0,
1420,2123478.0,
1421,2123744.0,
1422,2123518.0,
1423,2123621.0,
1424,2123739.0,
1425,2123543.0,
1426,2123506.0,
1427,2123591.0,
1428,2123550.0,
1429,2123539.0,
1430,2123588.0,
1431,2123653.0,
1432,2123576.0,
1433,2123608.0,
1434,2123652.0,
1435,2123664.0,
1436,2123565.0,
1437,2123511.0,
1438,2123601.0,
1439,2123572.0,
1440,2123645.0,
1441,2123600.0,
1442,2123558.0,
1443,2123705.0,
1444,2123581.0,
1445,2123507.0,
1446,2123670.0,
1447,2123525.0,
1448,2123646.0,
1449,2123524.0,
1450,2123768.0,
1451,2123579.0,
1452,2123447.0,
1453,2123541.0,
1454,2123537.0,
1455,2123487.0,
1456,2123748.0,
1457,2123624.0,
1458,2123615.0,
1459,2123569.0,
1460,2123534.0,
1461,2123524.0,
1462,2123690.0,
1463,2123582.0,
1464,2123710.0,
1465,2123702.0,
1466,2123517.0,
1467,2123709.0,
1468,2123594.0,
1469,2123705.0,
1470,2123698.0,
1471,2123534.0,
1472,2123758.0,
1473,2123513.0,
1474,2123514.0,
1475,2123717.0,
1476,2123518.0,
1477,2123729.0,
1478,2123462.0,
1479,2123647.0,
1480,2123604.0,
1481,2123517.0,
1482,2123536.0,
1483,2123546.0,
1484,2123472.0,
1485,2123536.0,
1486,2123654.0,
1487,2123494.0,
1488,2123546.0,
1489,2123479.0,
1490,2123607.0,
1491,2123698.0,
1492,2123547.0,
1493,2123539.0,
1494,2123538.0,
1495,2123718.0,
1496,2123590.0,
1497,2123688.0,
1498,2123526.0,
1499,2123564.0,
1500,2123709.0,
1501,2123586.0,
1502,2123523.0,
1503,2123514.0,
1504,2123438.0,
1505,2123549.0,
1506,2123519.0,
1507,2123586.0,
1508,2123489.0,
1509,2123571.0,
1510,2123729.0,
1511,2123556.0,
1512,2123656.0,
1513,2123596.0,
1514,2123523.0,
1515,2123557.0,
1516,2123428.0,
1517,2123522.0,
1518,2123534.0,
1519,2123759.0,
1520,2123539.0,
1521,2123699.0,
1522,2123590.0,
1523,2123447.0,
1524,2123680.0,
1525,2123546.0,
1526,2123682.0,
1527,2123498.0,
1528,2123719.0,
1529,2123567.0,
1530,2123731.0,
1531,2123593.0,
1532,2123509.0,
1533,2123653.0,
1534,2123518.0,
1535,2123751.0,
1536,2123605.0,
1537,2123544.0,
1538,2123657.0,
1539,2123612.0,
1540,2123529.0,
1541,2123671.0,
1542,2123529.0,
1543,2123665.0,
1544,2123768.0,
1545,2123495.0,
1546,2123775.0,
1547,2123508.0,
1548,2123689.0,
1549,2123503.0,
1550,2123676.0,
1551,2123494.0,
1552,2123756.0,
1553,2123592.0,
1554,2123604.0,
1555,2123563.0,
1556,2123585.0,
1557,2123660.0,
1558,2123488.0,
1559,2123689.0,
1560,2123580.0,
1561,2123586.0,
1562,2123740.0,
1563,2123567.0,
1564,2123745.0,
1565,2123578.0,
1566,2123496.0,
1567,2123583.0,
1568,2123681.0,
1569,2123586.0,
1570,2123579.0,
1571,2123466.0,
1572,2123671.0,
1573,2123514.0,
1574,2123575.0,
1575,2123553.0,
1576,2123668.0,
1577,2123604.0,
1578,2123562.0,
1579,2123720.0,
1580,2123493.0,
1581,2123719.0,
1582,2123550.0,
1583,2123560.0,
1584,2123520.0,
1585,2123678.0,
1586,2123590.0,
1587,2123698.0,
1588,2123543.0,
1589,2123650.0,
1590,2123465.0,
1591,2123690.0,
1592,2123552.0,
1593,2123529.0,
1594,2123753.0,
1595,2123527.0,
1596,2123767.0,
1597,2123571.0,
1598,2123632.0,
1599,2123610.0,
1600,2123663.0,
1601,2123655.0,
1602,2123428.0,
1603,2123594.0,
1604,2123589.0,
1605,2123544.0,
1606,2123510.0,
1607,2123689.0,
1608,2123518.0,
1609,2123598.0,
1610,2123645.0,
1611,2123550.0,
1612,2123588.0,
1613,2123544.0,
1614,2123610.0,
1615,2123479.0,
1616,2123656.0,
1617,2123646.0,
1618,2123524.0,
1619,2123714.0,
1620,2123582.0,
1621,2123573.0,
1622,2123650.0,
1623,2123594.0,
1624,2123479.0,
1625,2123598.0,
1626,2123615.0,
1627,2123627.0,
1628,2123622.0,
1629,2123656.0,
1630,2123724.0,
1631,2123501.0,
1632,2123723.0,
1633,2123676.0,
1634,2123616.0,
1635,2123581.0,
1636,2123673.0,
1637,2123554.0,
1638,2123616.0,
1639,2123508.0,
1640,2123652.0,
1641,2123525.0,
1642,2123531.0,
1643,2123525.0,
1644,2123649.0,
1645,2123556.0,
1646,2123511.0,
1647,2123594.0,
1648,2123583.0,
1649,2123533.0,
1650,2123610.0,
1651,2123657.0,
1652,2123544.0,
1653,2123493.0,
1654,2123520.0,
1655,2123596.0,
1656,2123510.0,
1657,2123517.0,
1658,2123522.0,
1659,2123536.0,
1660,2123485.0,
1661,2123608.0,
1662,2123569.0,
1663,2123714.0,
1664,2123447.0,
1665,2123531.0,
1666,2123591.0,
1667,2123696.0,
1668,2123584.0,
1669,2123643.0,
1670,2123593.0,
1671,2123479.0,
1672,2123556.0,
1673,2123548.0,
1674,2123608.0,
1675,2123636.0,
1676,2123708.0,
1677,2123669.0,
1678,2123461.0,
1679,2123689.0,
1680,2123534.0,
1681,2123515.0,
1682,2123663.0,
1683,2123478.0,
1684,2123491.0,
1685,2123695.0,
1686,2123537.0,
1687,2123497.0,
1688,2123573.0,
1689,2123720.0,
1690,2123606.0,
1691,2123646.0,
1692,2123464.0,
1693,2123668.0,
1694,2123570.0,
1695,2123491.0,
1696,2123442.0,
1697,2123566.0,
1698,2123533.0,
1699,2123492.0,
1700,2123617.0,
1701,2123472.0,
1702,2123509.0,
1703,2123547.0,
1704,2123664.0,
1705,2123715.0,
1706,2123675.0,
1707,2123446.0,
1708,2123544.0,
1709,2123565.0,
1710,2123556.0,
1711,2123614.0,
1712,2123718.0,
1713,2123617.0,
1714,2123651.0,
1715,2123613.0,
1716,2123465.0,
1717,2123471.0,
1718,2123484.0,
1719,2123563.0,
1720,2123732.0,
1721,2123461.0,
1722,2123671.0,
1723,2123566.0,
1724,2123526.0,
1725,2123559.0,
1726,2123686.0,
1727,2123464.0,
1728,2123562.0,
1729,2123655.0,
1730,2123694.0,
1731,2123662.0,
1732,2123526.0,
1733,2123694.0,
1734,2123726.0,
1735,2123538.0,
1736,2123581.0,
1737,2123541.0,
1738,2123451.0,
1739,2123684.0,
1740,2123489.0,
1741,2123594.0,
1742,2123597.0,
1743,2123591.0,
1744,2123687.0,
1745,2123551.0,
1746,2123684.0,
1747,2123659.0,
1748,2123486.0,
1749,2123456.0,
1750,2123571.0,
1751,2123699.0,
1752,2123549.0,
1753,2123625.0,
1754,2123573.0,
1755,2123488.0,
1756,2123710.0,
1757,2123690.0,
1758,2123518.0,
1759,2123517.0,
1760,2123722.0,
1761,2123517.0,
1762,2123567.0,
1763,2123642.0,
1764,2123383.0,
1765,2123456.0,
1766,2123568.0,
1767,2145742.0,
1768,2274043.0,
1769,2145267.0,
1770,2131525.0,
1771,2129925.0,
1772,2125316.0,
1773,2126505.0,
1774,2124991.0,
1775,2124664.0,
1776,2125215.0,
1777,2125617.0,
1778,2125332.0,
1779,2124755.0,
1780,2124788.0,
1781,2124977.0,
1782,2124828.0,
1783,2124758.0,
1784,2124761.0,
1785,2124944.0,
1786,2124871.0,
1787,2124727.0,
1788,2124807.0,
1789,2124874.0,
1790,2124731.0,
1791,2124863.0,
1792,2124715.0,
1793,2124770.0,
1794,2124986.0,
1795,2124961.0,
1796,2124788.0,
1797,2124817.0,
1798,2124740.0,
1799,2124682.0,
1800,2124820.0,
1801,2124765.0,
1802,2124754.0,
1803,2124705.0,
1804,2124795.0,
1805,2124741.0,
1806,2124791.0,
1807,2124861.0,
1808,2124868.0,
1809,2124899.0,
1810,2124726.0,
1811,2124792.0,
1812,2124856.0,
1813,2124710.0,
1814,2124755.0,
1815,2124815.0,
1816,2124829.0,
1817,2124782.0,
1818,2124783.0,
1819,2124776.0,
1820,2124800.0,
1821,2124878.0,
1822,2124743.0,
1823,2124705.0,
1824,2124727.0,
1825,2124842.0,
1826,2124909.0,
1827,2124897.0,
1828,2124738.0,
1829,2124824.0,
1830,2124904.0,
1831,2124960.0,
1832,2124782.0,
1833,2124700.0,
1834,2124760.0,
1835,2124897.0,
1836,2124709.0,
1837,2124759.0,
1838,2124662.0,
1839,2124806.0,
1840,2124883.0,
1841,2124765.0,
1842,2124732.0,
1843,2124631.0,
1844,2124770.0,
1845,2124729.0,
1846,2124886.0,
1847,2124871.0,
1848,2124881.0,
1849,2124908.0,
1850,2124739.0,
1851,2124902.0,
1852,2124783.0,
1853,2124955.0,
1854,2124662.0,
1855,2124742.0,
1856,2124898.0,
1857,2124707.0,
1858,2124736.0,
1859,2124934.0,
1860,2124806.0,
1861,2124760.0,
1862,2124901.0,
1863,2124721.0,
1864,2124707.0,
1865,2124845.0,
1866,2124702.0,
1867,2124834.0,
1868,2124707.0,
1869,2124731.0,
1870,2124815.0,
1871,2124687.0,
1872,2124935.0,
1873,2124711.0,
1874,2124769.0,
1875,2124907.0,
1876,2124740.0,
1877,2124828.0,
1878,2124661.0,
1879,2124787.0,
1880,2124655.0,
1881,2124761.0,
1882,2124870.0,
1883,2124690.0,
1884,2124766.0,
1885,2124830.0,
1886,2124670.0,
1887,2124668.0,
1888,2124799.0,
1889,2124776.0,
1890,2124882.0,
1891,2124877.0,
1892,2124656.0,
1893,2124937.0,
1894,2124802.0,
1895,2124805.0,
1896,2124750.0,
1897,2124706.0,
1898,2124717.0,
1899,2124719.0,
1900,2124871.0,
1901,2124837.0,
1902,2124707.0,
1903,2124742.0,
1904,2124821.0,
1905,2124704.0,
1906,2124712.0,
1907,2124825.0,
1908,2124671.0,
1909,2124739.0,
1910,2124954.0,
1911,2124739.0,
1912,2124661.0,
1913,2124700.0,
1914,2124886.0,
1915,2124965.0,
1916,2124826.0,
1917,2124715.0,
1918,2124905.0,
1919,2124761.0,
1920,2124802.0,
1921,2124894.0,
1922,2124868.0,
1923,2124663.0,
1924,2124645.0,
1925,2124806.0,
1926,2124843.0,
1927,2124617.0,
1928,2124650.0,
1929,2124819.0,
1930,2124763.0,
1931,2124687.0,
1932,2124684.0,
1933,2124736.0,
1934,2124704.0,
1935,2124698.0,
1936,2124867.0,
1937,2124701.0,
1938,2124696.0,
1939,2124693.0,
1940,2124711.0,
1941,2124805.0,
1942,2124720.0,
1943,2124880.0,
1944,2124693.0,
1945,2124636.0,
1946,2124687.0,
1947,2124766.0,
1948,2124881.0,
1949,2124892.0,
1950,2124648.0,
1951,2124846.0,
1952,2124710.0,
1953,2124707.0,
1954,2124926.0,
1955,2124898.0,
1956,2124666.0,
1957,2124710.0,
1958,2124847.0,
1959,2124827.0,
1960,2124762.0,
1961,2124839.0,
1962,2124905.0,
1963,2124861.0,
1964,2124678.0,
1965,2124745.0,
1966,2124756.0,
1967,2124735.0,
1968,2124869.0,
1969,2124861.0,
1970,2124785.0,
1971,2124856.0,
1972,2124861.0,
1973,2124727.0,
1974,2124678.0,
1975,2124861.0,
1976,2124735.0,
1977,2124708.0,
1978,2124777.0,
1979,2124683.0,
1980,2124923.0,
1981,2124765.0,
1982,2124921.0,
1983,2124831.0,
1984,2124750.0,
1985,2124753.0,
1986,2124714.0,
1987,2124801.0,
1988,2124717.0,
1989,2124700.0,
1990,2124871.0,
1991,2124798.0,
1992,2124717.0,
1993,2124863.0,
1994,2124653.0,
1995,2124682.0,
1996,2124840.0,
1997,2124672.0,
1998,2124656.0,
1999,2124730.0,
2000,2124772.0,
2001,2124769.0,
2002,2124822.0,
2003,2124696.0,
2004,2124730.0,
2005,2124872.0,
2006,2124706.0,
2007,2124767.0,
2008,2124885.0,
2009,2124634.0,
2010,2124802.0,
2011,2124790.0,
2012,2124729.0,
2013,2124825.0,
2014,2124699.0,
2015,2124615.0,
2016,2124708.0,
2017,2124927.0,
2018,2124658.0,
2019,2124613.0,
2020,2124639.0,
2021,2124804.0,
2022,2124914.0,
2023,2124686.0,
2024,2124700.0,
2025,2124683.0,
2026,2124770.0,
2027,2124673.0,
2028,2124820.0,
2029,2124633.0,
2030,2124690.0,
2031,2124691.0,
2032,2124719.0,
2033,2124648.0,
2034,2124889.0,
2035,2124824.0,
2036,2124647.0,
2037,2124652.0,
2038,2124714.0,
2039,2124892.0,
2040,2124640.0,
2041,2124847.0,
2042,2124667.0,
2043,2124698.0,
2044,2124908.0,
2045,2124727.0,
2046,2124728.0,
2047,2124648.0,
2048,2124754.0,
2049,2124653.0,
2050,2124694.0,
2051,2124781.0,
2052,2124754.0,
2053,2124693.0,
2054,2124865.0,
2055,2124742.0,
2056,2124790.0,
2057,2124888.0,
2058,2124757.0,
2059,2124858.0,
2060,2124670.0,
2061,2124722.0,
2062,2124844.0,
2063,2124715.0,
2064,2124865.0,
2065,2124654.0,
2066,2124679.0,
2067,2124932.0,
2068,2124702.0,
2069,2124707.0,
2070,2124847.0,
2071,2124656.0,
2072,2124652.0,
2073,2124679.0,
2074,2124699.0,
2075,2124864.0,
2076,2124860.0,
2077,2124620.0,
2078,2124718.0,
2079,2124752.0,
2080,2124693.0,
2081,2124712.0,
2082,2124601.0,
2083,2124722.0,
2084,2124850.0,
2085,2124746.0,
2086,2124826.0,
2087,2124762.0,
2088,2124866.0,
2089,2124672.0,
2090,2124807.0,
2091,2124642.0,
2092,2124800.0,
2093,2124719.0,
2094,2124893.0,
2095,2124664.0,
2096,2124896.0,
2097,2124665.0,
2098,2124734.0,
2099,2124854.0,
2100,2124744.0,
2101,2124772.0,
2102,2124892.0,
2103,2124752.0,
2104,2124680.0,
2105,2124772.0,
2106,2124855.0,
2107,2124716.0,
2108,2124873.0,
2109,2124647.0,
2110,2124861.0,
2111,2124701.0,
2112,2124805.0,
2113,2124640.0,
2114,2124871.0,
2115,2124703.0,
2116,2124781.0,
2117,2124634.0,
2118,2124881.0,
2119,2124660.0,
2120,2124743.0,
2121,2124865.0,
2122,2124855.0,
2123,2124868.0,
2124,2124845.0,
2125,2124642.0,
2126,2124905.0,
2127,2124703.0,
2128,2124914.0,
2129,2124658.0,
2130,2124789.0,
2131,2124866.0,
2132,2124689.0,
2133,2124670.0,
2134,2124860.0,
2135,2124672.0,
2136,2124567.0,
2137,2124612.0,
2138,2124876.0,
2139,2124682.0,
2140,2124701.0,
2141,2124741.0,
2142,2124678.0,
2143,2124644.0,
2144,2124688.0,
2145,2124721.0,
2146,2124848.0,
2147,2124647.0,
2148,2124878.0,
2149,2124657.0,
2150,2124801.0,
2151,2124688.0,
2152,2124843.0,
2153,2124717.0,
2154,2124692.0,
2155,2124965.0,
2156,2124660.0,
2157,2124700.0,
2158,2124733.0,
2159,2124842.0,
2160,2124662.0,
2161,2124875.0,
2162,2124644.0,
2163,2124822.0,
2164,2124703.0,
2165,2124854.0,
2166,2124727.0,
2167,2124880.0,
2168,2124625.0,
2169,2124754.0,
2170,2124710.0,
2171,2124801.0,
2172,2124619.0,
2173,2124873.0,
2174,2124602.0,
2175,2124771.0,
2176,2124864.0,
2177,2124679.0,
2178,2124840.0,
2179,2124696.0,
2180,2124808.0,
2181,2124749.0,
2182,2124649.0,
2183,2124877.0,
2184,2124659.0,
2185,2124901.0,
2186,2124712.0,
2187,2124817.0,
2188,2124846.0,
2189,2124712.0,
2190,2124617.0,
2191,2124763.0,
2192,2124721.0,
2193,2124687.0,
2194,2124618.0,
2195,2124879.0,
2196,2124628.0,
2197,2124836.0,
2198,2124713.0,
2199,2124782.0,
2200,2124751.0,
2201,2124813.0,
2202,2124714.0,
2203,2124783.0,
2204,2124698.0,
2205,2124711.0,
2206,2124706.0,
2207,2124900.0,
2208,2124763.0,
2209,2124654.0,
2210,2124793.0,
2211,2124646.0,
2212,2124798.0,
2213,2124687.0,
2214,2124655.0,
2215,2124858.0,
2216,2124781.0,
2217,2124713.0,
2218,2124860.0,
2219,2124666.0,
2220,2124771.0,
2221,2124774.0,
2222,2124882.0,
2223,2124668.0,
2224,2124744.0,
2225,2124794.0,
2226,2124748.0,
2227,2124598.0,
2228,2124798.0,
2229,2124654.0,
2230,2124813.0,
2231,2124715.0,
2232,2124702.0,
2233,2124686.0,
2234,2124637.0,
2235,2124694.0,
2236,2124780.0,
2237,2124644.0,
2238,2124688.0,
2239,2124680.0,
2240,2124672.0,
2241,2124763.0,
2242,2124639.0,
2243,2124805.0,
2244,2124763.0,
2245,2124750.0,
2246,2124716.0,
2247,2124692.0,
2248,2124635.0,
2249,2124626.0,
2250,2124672.0,
2251,2124652.0,
2252,2124584.0,
2253,2124669.0,
2254,2124716.0,
2255,2124703.0,
2256,2124833.0,
2257,2124804.0,
2258,2124850.0,
2259,2124665.0,
2260,2124704.0,
2261,2124918.0,
2262,2124813.0,
2263,2124586.0,
2264,2124761.0,
2265,2124670.0,
2266,2124649.0,
2267,2124859.0,
2268,2124661.0,
2269,2124646.0,
2270,2124678.0,
2271,2124843.0,
2272,2124785.0,
2273,2124611.0,
2274,2124714.0,
2275,2124883.0,
2276,2124740.0,
2277,2124654.0,
2278,2124688.0,
2279,2124638.0,
2280,2124905.0,
2281,2124662.0,
2282,2124757.0,
2283,2124848.0,
2284,2124792.0,
2285,2124842.0,
2286,2124812.0,
2287,2124854.0,
2288,2124866.0,
2289,2124826.0,
2290,2124827.0,
2291,2124629.0,
2292,2124631.0,
2293,2124757.0,
2294,2124641.0,
2295,2124670.0,
2296,2124668.0,
2297,2124657.0,
2298,2124643.0,
2299,2124817.0,
2300,2124822.0,
2301,2124765.0,
2302,2124623.0,
2303,2124621.0,
2304,2124609.0,
2305,2124612.0,
2306,2124689.0,
2307,2124795.0,
2308,2124823.0,
2309,2124726.0,
2310,2124796.0,
2311,2124589.0,
2312,2124702.0,
2313,2124841.0,
2314,2124830.0,
2315,2124873.0,
2316,2124861.0,
2317,2124656.0,
2318,2124616.0,
2319,2124688.0,
2320,2124711.0,
2321,2124731.0,
2322,2124596.0,
2323,2124709.0,
2324,2124684.0,
2325,2124649.0,
2326,2124780.0,
2327,2124705.0,
2328,2124695.0,
2329,2124872.0,
2330,2124835.0,
2331,2124599.0,
2332,2124682.0,
2333,2124643.0,
2334,2124688.0,
2335,2124850.0,
2336,2124665.0,
2337,2124770.0,
2338,2124718.0,
2339,2124588.0,
2340,2124719.0,
2341,2124683.0,
2342,2124830.0,
2343,2124748.0,
2344,2124644.0,
2345,2124607.0,
2346,2124706.0,
2347,2124728.0,
2348,2124589.0,
2349,2124701.0,
2350,2124810.0,
2351,2124814.0,
2352,2124853.0,
2353,2124798.0,
2354,2124654.0,
2355,2124636.0,
2356,2124645.0,
2357,2124674.0,
2358,2124824.0,
2359,2124738.0,
2360,2124840.0,
2361,2124607.0,
2362,2124888.0,
2363,2124640.0,
2364,2124626.0,
2365,2124620.0,
2366,2124658.0,
2367,2124744.0,
2368,2124699.0,
2369,2124763.0,
2370,2124608.0,
2371,2124688.0,
2372,2124838.0,
2373,2124854.0,
2374,2124868.0,
2375,2124682.0,
2376,2124900.0,
2377,2124710.0,
2378,2124585.0,
2379,2124699.0,
2380,2124662.0,
2381,2124667.0,
2382,2124697.0,
2383,2124670.0,
2384,2124649.0,
2385,2124793.0,
2386,2124818.0,
2387,2124815.0,
2388,2124720.0,
2389,2124648.0,
2390,2124627.0,
2391,2124716.0,
2392,2124692.0,
2393,2124917.0,
2394,2124888.0,
2395,2124672.0,
2396,2124803.0,
2397,2124726.0,
2398,2124872.0,
2399,2124917.0,
2400,2124795.0,
2401,2124767.0,
2402,2124627.0,
2403,2124684.0,
2404,2124703.0,
2405,2124660.0,
2406,2124605.0,
2407,2124664.0,
2408,2124663.0,
2409,2124626.0,
2410,2124654.0,
2411,2124724.0,
2412,2124645.0,
2413,2124659.0,
2414,2124704.0,
2415,2124684.0,
2416,2124675.0,
2417,2124648.0,
2418,2124653.0,
2419,2124592.0,
2420,2124645.0,
2421,2124631.0,
2422,2124658.0,
2423,2124662.0,
2424,2124666.0,
2425,2124657.0,
2426,2124662.0,
2427,2124663.0,
2428,2124694.0,
2429,2124712.0,
2430,2124705.0,
2431,2124702.0,
2432,2124717.0,
2433,2124569.0,
2434,2124696.0,
2435,2124662.0,
2436,2124598.0,
2437,2124657.0,
2438,2124732.0,
2439,2124688.0,
2440,2124701.0,
2441,2124543.0,
2442,2124664.0,
2443,2124591.0,
2444,2124652.0,
2445,2124732.0,
2446,2124680.0,
2447,2124723.0,
2448,2124853.0,
2449,2124804.0,
2450,2124673.0,
2451,2124651.0,
2452,2124637.0,
2453,2124662.0,
2454,2124625.0,
2455,2124655.0,
2456,2124640.0,
2457,2124630.0,
2458,2124684.0,
2459,2124676.0,
2460,2124664.0,
2461,2124612.0,
2462,2124596.0,
2463,2124682.0,
2464,2124677.0,
2465,2124690.0,
2466,2124685.0,
2467,2124670.0,
2468,2124629.0,
2469,2124742.0,
2470,2124874.0,
2471,2124860.0,
2472,2124690.0,
2473,2124683.0,
2474,2124702.0,
2475,2124644.0,
2476,2124847.0,
2477,2124629.0,
2478,2124789.0,
2479,2124718.0,
2480,2124563.0,
2481,2124682.0,
2482,2124593.0,
2483,2124737.0,
2484,2124680.0,
2485,2124839.0,
2486,2124677.0,
2487,2124807.0,
2488,2124864.0,
2489,2124840.0,
2490,2124672.0,
2491,2124676.0,
2492,2124662.0,
2493,2124692.0,
2494,2124890.0,
2495,2124669.0,
2496,2124669.0,
2497,2124764.0,
2498,2124606.0,
2499,2124745.0,
2500,2124674.0,
2501,2124674.0,
2502,2124679.0,
2503,2124694.0,
2504,2124705.0,
2505,2124709.0,
2506,2124709.0,
2507,2124767.0,
2508,2124668.0,
2509,2124677.0,
2510,2124671.0,
2511,2124717.0,
2512,2124781.0,
2513,2124882.0,
2514,2124638.0,
2515,2124630.0,
2516,2124553.0,
2517,2124641.0,
2518,2124685.0,
2519,2124671.0,
2520,2124814.0,
2521,2124800.0,
2522,2124820.0,
2523,2124831.0,
2524,2124664.0,
2525,2124706.0,
2526,2124636.0,
2527,2124719.0,
2528,2124717.0,
2529,2124617.0,
2530,2124640.0,
2531,2124778.0,
2532,2124700.0,
2533,2124648.0,
2534,2124714.0,
2535,2124611.0,
2536,2124624.0,
2537,2124592.0,
2538,2124677.0,
2539,2124687.0,
2540,2124906.0,
2541,2124801.0,
2542,2124855.0,
2543,2124667.0,
2544,2124817.0,
2545,2124590.0,
2546,2124646.0,
2547,2124619.0,
2548,2124634.0,
2549,2124877.0,
2550,2124832.0,
2551,2124737.0,
2552,2124656.0,
2553,2124799.0,
2554,2124652.0,
2555,2124665.0,
2556,2124663.0,
2557,2124855.0,
2558,2124854.0,
2559,2124615.0,
2560,2124699.0,
2561,2124631.0,
2562,2124670.0,
2563,2124576.0,
2564,2124636.0,
2565,2124702.0,
2566,2124677.0,
2567,2124597.0,
2568,2124670.0,
2569,2124762.0,
2570,2124679.0,
2571,2124627.0,
2572,2124610.0,
2573,2124658.0,
2574,2124647.0,
2575,2124695.0,
2576,2124841.0,
2577,2124627.0,
2578,2124559.0,
2579,2124666.0,
2580,2124880.0,
2581,2124716.0,
2582,2124894.0,
2583,2124779.0,
2584,2124820.0,
2585,2124812.0,
2586,2124817.0,
2587,2124800.0,
2588,2124846.0,
2589,2124590.0,
2590,2124652.0,
2591,2124629.0,
2592,2124620.0,
2593,2124618.0,
2594,2124700.0,
2595,2124772.0,
2596,2124861.0,
2597,2124822.0,
2598,2124735.0,
2599,2124636.0,
2600,2124678.0,
2601,2124808.0,
2602,2124653.0,
2603,2124733.0,
2604,2124689.0,
2605,2124836.0,
2606,2124658.0,
2607,2124629.0,
2608,2124687.0,
2609,2124695.0,
2610,2124751.0,
2611,2124818.0,
2612,2124626.0,
2613,2124603.0,
2614,2124688.0,
2615,2124721.0,
2616,2124797.0,
2617,2124845.0,
2618,2124792.0,
2619,2124861.0,
2620,2124729.0,
2621,2124639.0,
2622,2124730.0,
2623,2124600.0,
2624,2124684.0,
2625,2124572.0,
2626,2124674.0,
2627,2124820.0,
2628,2124787.0,
2629,2124753.0,
2630,2124672.0,
2631,2124630.0,
2632,2124617.0,
2633,2124607.0,
2634,2124644.0,
2635,2124615.0,
2636,2124693.0,
2637,2124625.0,
2638,2124636.0,
2639,2124591.0,
2640,2124620.0,
2641,2124790.0,
2642,2124866.0,
2643,2124643.0,
2644,2124790.0,
2645,2124649.0,
2646,2124711.0,
2647,2124702.0,
2648,2124838.0,
2649,2124813.0,
2650,2124751.0,
2651,2124754.0,
2652,2124646.0,
2653,2124631.0,
2654,2124653.0,
2655,2124732.0,
2656,2124624.0,
2657,2124673.0,
2658,2124613.0,
2659,2124785.0,
2660,2124591.0,
2661,2124838.0,
2662,2124694.0,
2663,2124596.0,
2664,2124719.0,
2665,2124798.0,
2666,2124820.0,
2667,2124715.0,
2668,2124785.0,
2669,2124651.0,
2670,2124624.0,
2671,2124634.0,
2672,2124587.0,
2673,2124635.0,
2674,2124636.0,
2675,2124600.0,
2676,2124673.0,
2677,2124622.0,
2678,2124627.0,
2679,2124656.0,
2680,2124627.0,
2681,2124701.0,
2682,2124581.0,
2683,2124695.0,
2684,2124681.0,
2685,2124723.0,
2686,2124833.0,
2687,2124636.0,
2688,2124692.0,
2689,2124630.0,
2690,2124688.0,
2691,2124665.0,
2692,2124661.0,
2693,2124700.0,
2694,2124660.0,
2695,2124666.0,
2696,2124608.0,
2697,2124796.0,
2698,2124836.0,
2699,2124776.0,
2700,2124576.0,
2701,2124747.0,
2702,2124594.0,
2703,2124795.0,
2704,2124570.0,
2705,2124705.0,
2706,2124648.0,
2707,2124652.0,
2708,2124752.0,
2709,2124807.0,
2710,2124732.0,
2711,2124564.0,
2712,2124812.0,
2713,2124658.0,
2714,2124639.0,
2715,2124825.0,
2716,2124587.0,
2717,2124839.0,
2718,2124601.0,
2719,2124693.0,
2720,2124623.0,
2721,2124698.0,
2722,2124845.0,
2723,2124655.0,
2724,2124866.0,
2725,2124675.0,
2726,2124776.0,
2727,2124635.0,
2728,2124893.0,
2729,2124601.0,
2730,2124668.0,
2731,2124872.0,
2732,2124701.0,
2733,2124653.0,
2734,2124716.0,
2735,2124647.0,
2736,2124788.0,
2737,2124603.0,
2738,2124630.0,
2739,2124599.0,
2740,2124712.0,
2741,2124780.0,
2742,2124849.0,
2743,2124858.0,
2744,2124621.0,
2745,2124606.0,
2746,2124699.0,
2747,2124787.0,
2748,2124757.0,
2749,2124897.0,
2750,2124806.0,
2751,2124686.0,
2752,2124590.0,
2753,2124668.0,
2754,2124576.0,
2755,2124520.0,
2756,2124643.0,
2757,2124667.0,
2758,2124731.0,
2759,2124819.0,
2760,2124820.0,
2761,2124816.0,
2762,2124645.0,
2763,2124617.0,
2764,2124638.0,
2765,2124680.0,
2766,2124706.0,
2767,2124805.0,
2768,2124869.0,
2769,2124633.0,
2770,2124761.0,
2771,2124687.0,
2772,2124736.0,
2773,2124855.0,
2774,2124608.0,
2775,2124608.0,
2776,2124590.0,
2777,2124634.0,
2778,2124704.0,
2779,2124784.0,
2780,2124696.0,
2781,2124614.0,
2782,2124613.0,
2783,2124655.0,
2784,2124689.0,
2785,2124756.0,
2786,2124795.0,
2787,2124620.0,
2788,2124699.0,
2789,2124618.0,
2790,2124715.0,
2791,2124799.0,
2792,2124673.0,
2793,2124629.0,
2794,2124752.0,
2795,2124676.0,
2796,2124598.0,
2797,2124694.0,
2798,2124685.0,
2799,2124796.0,
2800,2124671.0,
2801,2124849.0,
2802,2124844.0,
2803,2124792.0,
2804,2124806.0,
2805,2124809.0,
2806,2124795.0,
2807,2124754.0,
2808,2124669.0,
2809,2124618.0,
2810,2124614.0,
2811,2124643.0,
2812,2124626.0,
2813,2124597.0,
2814,2124671.0,
2815,2124866.0,
2816,2124850.0,
2817,2124814.0,
2818,2124682.0,
2819,2124722.0,
2820,2124605.0,
2821,2124642.0,
2822,2124824.0,
2823,2124623.0,
2824,2124807.0,
2825,2124800.0,
2826,2124848.0,
2827,2124840.0,
2828,2124853.0,
2829,2124846.0,
2830,2124770.0,
2831,2124742.0,
2832,2124751.0,
2833,2124776.0,
2834,2124706.0,
2835,2124579.0,
2836,2124635.0,
2837,2124767.0,
2838,2124623.0,
2839,2124610.0,
2840,2124825.0,
2841,2124760.0,
2842,2124787.0,
2843,2124621.0,
2844,2124695.0,
2845,2124659.0,
2846,2124586.0,
2847,2124662.0,
2848,2124600.0,
2849,2124622.0,
2850,2124623.0,
2851,2124575.0,
2852,2124636.0,
2853,2124614.0,
2854,2124682.0,
2855,2124770.0,
2856,2124807.0,
2857,2124713.0,
2858,2124635.0,
2859,2124576.0,
2860,2124694.0,
2861,2124631.0,
2862,2124757.0,
2863,2124611.0,
2864,2124643.0,
2865,2124573.0,
2866,2124599.0,
2867,2124701.0,
2868,2124761.0,
2869,2124761.0,
2870,2124819.0,
2871,2124739.0,
2872,2124552.0,
2873,2124615.0,
2874,2124575.0,
2875,2124744.0,
2876,2124664.0,
2877,2124569.0,
2878,2124655.0,
2879,2124556.0,
2880,2124625.0,
2881,2124641.0,
2882,2124652.0,
2883,2124687.0,
2884,2124675.0,
2885,2124816.0,
2886,2124837.0,
2887,2124753.0,
2888,2124799.0,
2889,2124804.0,
2890,2124774.0,
2891,2124827.0,
2892,2124669.0,
2893,2124718.0,
2894,2124799.0,
2895,2124804.0,
2896,2124810.0,
2897,2124796.0,
2898,2124816.0,
2899,2124615.0,
2900,2124683.0,
2901,2124596.0,
2902,2124654.0,
2903,2124744.0,
2904,2124750.0,
2905,2124738.0,
2906,2124776.0,
2907,2124807.0,
2908,2124614.0,
2909,2124645.0,
2910,2124625.0,
2911,2124574.0,
2912,2124551.0,
2913,2124685.0,
2914,2124669.0,
2915,2124632.0,
2916,2124761.0,
2917,2124621.0,
2918,2124664.0,
2919,2124630.0,
2920,2124634.0,
2921,2124630.0,
2922,2124642.0,
2923,2124714.0,
2924,2124683.0,
2925,2124674.0,
2926,2124595.0,
2927,2124620.0,
2928,2124544.0,
2929,2124736.0,
2930,2124680.0,
2931,2124598.0,
2932,2124632.0,
2933,2124623.0,
2934,2124786.0,
2935,2124662.0,
2936,2124693.0,
2937,2124623.0,
2938,2124624.0,
2939,2124732.0,
2940,2124661.0,
2941,2124606.0,
2942,2124695.0,
2943,2124681.0,
2944,2124651.0,
2945,2124588.0,
2946,2124611.0,
2947,2124644.0,
2948,2124616.0,
2949,2124614.0,
2950,2124644.0,
2951,2124597.0,
2952,2124618.0,
2953,2124587.0,
2954,2124649.0,
2955,2124584.0,
2956,2124575.0,
2957,2124588.0,
2958,2124706.0,
2959,2124590.0,
2960,2124825.0,
2961,2124653.0,
2962,2124594.0,
2963,2124525.0,
2964,2124566.0,
2965,2124609.0,
2966,2124824.0,
2967,2124769.0,
2968,2124688.0,
2969,2124667.0,
2970,2124560.0,
2971,2124658.0,
2972,2124719.0,
2973,2124821.0,
2974,2124763.0,
2975,2124827.0,
2976,2124775.0,
2977,2124635.0,
2978,2124633.0,
2979,2124610.0,
2980,2124558.0,
2981,2124801.0,
2982,2124891.0,
2983,2124865.0,
2984,2124602.0,
2985,2124600.0,
2986,2124692.0,
2987,2124694.0,
2988,2124744.0,
2989,2124770.0,
2990,2124561.0,
2991,2124703.0,
2992,2124596.0,
2993,2124633.0,
2994,2124817.0,
2995,2124788.0,
2996,2124764.0,
2997,2124743.0,
2998,2124690.0,
2999,2124569.0,
3000,2124604.0,
3001,2124695.0,
3002,2124596.0,
3003,2124668.0,
3004,2124655.0,
3005,2124712.0,
3006,2124577.0,
3007,2124583.0,
3008,2124593.0,
3009,2124663.0,
3010,2124612.0,
3011,2124840.0,
3012,2124834.0,
3013,2124864.0,
3014,2124709.0,
3015,2124621.0,
3016,2124597.0,
3017,2124587.0,
3018,2124622.0,
3019,2124756.0,
3020,2124576.0,
3021,2124605.0,
3022,2124654.0,
3023,2124585.0,
3024,2124582.0,
3025,2124622.0,
3026,2124680.0,
3027,2124662.0,
3028,2124792.0,
3029,2124724.0,
3030,2124611.0,
3031,2124627.0,
3032,2124616.0,
3033,2124663.0,
3034,2124733.0,
3035,2124637.0,
3036,2124604.0,
3037,2124683.0,
3038,2124832.0,
3039,2124609.0,
3040,2124647.0,
3041,2124610.0,
3042,2124619.0,
3043,2124527.0,
3044,2124633.0,
3045,2124701.0,
3046,2124659.0,
3047,2124642.0,
3048,2124821.0,
3049,2124780.0,
3050,2124692.0,
3051,2124669.0,
3052,2124867.0,
3053,2124728.0,
3054,2124775.0,
3055,2124795.0,
3056,2124624.0,
3057,2124622.0,
3058,2124820.0,
3059,2124790.0,
3060,2124685.0,
3061,2124580.0,
3062,2124703.0,
3063,2124519.0,
3064,2124793.0,
3065,2124725.0,
3066,2124682.0,
3067,2124801.0,
3068,2124764.0,
3069,2124548.0,
3070,2124600.0,
3071,2124601.0,
3072,2124781.0,
3073,2124734.0,
3074,2124552.0,
3075,2124645.0,
3076,2124655.0,
3077,2124754.0,
3078,2124735.0,
3079,2124572.0,
3080,2124775.0,
3081,2124766.0,
3082,2124685.0,
3083,2124583.0,
3084,2124534.0,
3085,2124626.0,
3086,2124534.0,
3087,2124655.0,
3088,2124631.0,
3089,2124634.0,
3090,2124801.0,
3091,2124677.0,
3092,2124615.0,
3093,2124639.0,
3094,2124635.0,
3095,2124810.0,
3096,2124586.0,
3097,2124810.0,
3098,2124816.0,
3099,2124627.0,
3100,2124649.0,
3101,2124600.0,
3102,2124628.0,
3103,2124651.0,
3104,2124641.0,
3105,2124772.0,
3106,2124557.0,
3107,2124651.0,
3108,2124828.0,
3109,2124771.0,
3110,2124769.0,
3111,2124622.0,
3112,2124560.0,
3113,2124552.0,
3114,2124653.0,
3115,2124560.0,
3116,2124686.0,
3117,2124791.0,
3118,2124652.0,
3119,2124664.0,
3120,2124643.0,
3121,2124810.0,
3122,2124691.0,
3123,2124577.0,
3124,2124559.0,
3125,2124624.0,
3126,2124776.0,
3127,2124594.0,
3128,2124595.0,
3129,2124648.0,
3130,2124795.0,
3131,2124723.0,
3132,2124544.0,
3133,2124563.0,
3134,2124687.0,
3135,2124744.0,
3136,2124579.0,
3137,2124643.0,
3138,2124577.0,
3139,2124621.0,
3140,2124581.0,
3141,2124653.0,
3142,2124563.0,
3143,2124621.0,
3144,2124653.0,
3145,2124837.0,
3146,2124623.0,
3147,2124614.0,
3148,2124571.0,
3149,2124699.0,
3150,2124796.0,
3151,2124771.0,
3152,2124604.0,
3153,2124685.0,
3154,2124604.0,
3155,2124608.0,
3156,2124627.0,
3157,2124643.0,
3158,2124843.0,
3159,2124757.0,
3160,2124771.0,
3161,2124807.0,
3162,2124737.0,
3163,2124762.0,
3164,2124817.0,
3165,2124751.0,
3166,2124679.0,
3167,2124692.0,
3168,2124716.0,
3169,2124634.0,
3170,2124564.0,
3171,2124573.0,
3172,2124621.0,
3173,2124570.0,
3174,2124609.0,
3175,2124695.0,
3176,2124609.0,
3177,2124568.0,
3178,2124570.0,
3179,2124696.0,
3180,2124873.0,
3181,2124823.0,
3182,2124734.0,
3183,2124794.0,
3184,2124786.0,
3185,2124644.0,
3186,2124587.0,
3187,2124541.0,
3188,2124604.0,
3189,2124609.0,
3190,2124678.0,
3191,2124769.0,
3192,2124664.0,
3193,2124818.0,
3194,2124680.0,
3195,2124677.0,
3196,2124601.0,
3197,2124580.0,
3198,2124660.0,
3199,2124810.0,
3200,2124731.0,
3201,2124821.0,
3202,2124724.0,
3203,2124612.0,
3204,2124595.0,
3205,2124592.0,
3206,2124638.0,
3207,2124626.0,
3208,2124645.0,
3209,2124816.0,
3210,2124735.0,
3211,2124570.0,
3212,2124709.0,
3213,2124768.0,
3214,2124781.0,
3215,2124710.0,
3216,2124641.0,
3217,2124555.0,
3218,2124583.0,
3219,2124615.0,
3220,2124647.0,
3221,2124725.0,
3222,2124591.0,
3223,2124595.0,
3224,2124630.0,
3225,2124630.0,
3226,2124624.0,
3227,2124753.0,
3228,2124786.0,
3229,2124749.0,
3230,2124721.0,
3231,2124584.0,
3232,2124657.0,
3233,2124760.0,
3234,2124603.0,
3235,2124611.0,
3236,2124596.0,
3237,2124794.0,
3238,2124621.0,
3239,2124652.0,
3240,2124750.0,
3241,2124615.0,
3242,2124637.0,
3243,2124662.0,
3244,2124726.0,
3245,2124628.0,
3246,2124565.0,
3247,2124614.0,
3248,2124644.0,
3249,2124622.0,
3250,2124576.0,
3251,2124813.0,
3252,2124647.0,
3253,2124569.0,
3254,2124637.0,
3255,2124628.0,
3256,2124771.0,
3257,2124579.0,
3258,2124652.0,
3259,2124680.0,
3260,2124614.0,
3261,2124603.0,
3262,2124664.0,
3263,2124748.0,
3264,2124723.0,
3265,2124555.0,
3266,2159831.0,
3267,2165778.0,
3268,2148029.0,
3269,2163384.0,
3270,2270902.0,
3271,2271533.0,
3272,2277842.0,
3273,2275926.0,
3274,2276231.0,
3275,2276327.0,
3276,2276615.0,
3277,2276398.0,
3278,2276430.0,
3279,2276712.0,
3280,2276372.0,
3281,2276557.0,
3282,2276510.0,
3283,2276442.0,
3284,2276604.0,
3285,2276360.0,
3286,2276481.0,
3287,2276688.0,
3288,2276609.0,
3289,2276610.0,
3290,2276384.0,
3291,2276513.0,
3292,2276410.0,
3293,2276396.0,
3294,2276358.0,
3295,2276678.0,
3296,2276514.0,
3297,2276599.0,
3298,2276565.0,
3299,2276568.0,
3300,2276442.0,
3301,2276379.0,
3302,2276458.0,
3303,2276430.0,
3304,2276403.0,
3305,2276424.0,
3306,2276372.0,
3307,2276425.0,
3308,2276507.0,
3309,2276337.0,
3310,2276346.0,
3311,2276406.0,
3312,2276608.0,
3313,2276293.0,
3314,2276405.0,
3315,2276386.0,
3316,2276376.0,
3317,2276356.0,
3318,2276628.0,
3319,2276296.0,
3320,2276366.0,
3321,2276330.0,
3322,2276506.0,
3323,2276569.0,
3324,2276341.0,
3325,2276348.0,
3326,2276571.0,
3327,2276448.0,
3328,2276305.0,
3329,2276395.0,
3330,2276528.0,
3331,2276438.0,
3332,2276379.0,
3333,2276588.0,
3334,2276593.0,
3335,2276434.0,
3336,2276316.0,
3337,2276586.0,
3338,2276678.0,
3339,2276393.0,
3340,2276319.0,
3341,2276391.0,
3342,2276600.0,
3343,2276343.0,
3344,2276393.0,
3345,2276304.0,
3346,2276380.0,
3347,2276684.0,
3348,2276538.0,
3349,2276369.0,
3350,2276629.0,
3351,2276291.0,
3352,2276399.0,
3353,2276548.0,
3354,2276401.0,
3355,2276456.0,
3356,2276344.0,
3357,2276464.0,
3358,2276363.0,
3359,2276512.0,
3360,2276579.0,
3361,2276340.0,
3362,2276357.0,
3363,2276389.0,
3364,2276605.0,
3365,2276418.0,
3366,2276242.0,
3367,2276340.0,
3368,2276591.0,
3369,2276584.0,
3370,2276297.0,
3371,2276338.0,
3372,2276388.0,
3373,2276587.0,
3374,2276316.0,
3375,2276299.0,
3376,2276320.0,
3377,2276371.0,
3378,2276528.0,
3379,2276510.0,
3380,2276394.0,
3381,2276335.0,
3382,2276345.0,
3383,2276505.0,
3384,2276366.0,
3385,2276351.0,
3386,2276352.0,
3387,2276530.0,
3388,2276440.0,
3389,2276255.0,
3390,2276411.0,
3391,2276561.0,
3392,2276416.0,
3393,2276272.0,
3394,2276309.0,
3395,2276349.0,
3396,2276587.0,
3397,2276302.0,
3398,2276346.0,
3399,2276353.0,
3400,2276550.0,
3401,2276364.0,
3402,2276325.0,
3403,2276355.0,
3404,2276551.0,
3405,2276364.0,
3406,2276318.0,
3407,2276319.0,
3408,2276354.0,
3409,2276466.0,
3410,2276313.0,
3411,2276376.0,
3412,2276360.0,
3413,2276382.0,
3414,2276377.0,
3415,2276256.0,
3416,2276328.0,
3417,2276334.0,
3418,2276503.0,
3419,2276540.0,
3420,2276470.0,
3421,2276304.0,
3422,2276260.0,
3423,2276342.0,
3424,2276370.0,
3425,2276515.0,
3426,2276568.0,
3427,2276543.0,
3428,2276503.0,
3429,2276342.0,
3430,2276541.0,
3431,2276599.0,
3432,2276478.0,
3433,2276504.0,
3434,2276484.0,
3435,2276262.0,
3436,2276276.0,
3437,2276305.0,
3438,2276572.0,
3439,2276208.0,
3440,2276251.0,
3441,2276590.0,
3442,2276541.0,
3443,2276469.0,
3444,2276272.0,
3445,2276322.0,
3446,2276348.0,
3447,2276331.0,
3448,2276489.0,
3449,2276269.0,
3450,2276330.0,
3451,2276302.0,
3452,2276278.0,
3453,2276265.0,
3454,2276297.0,
3455,2276437.0,
3456,2276580.0,
3457,2276544.0,
3458,2276289.0,
3459,2276346.0,
3460,2276575.0,
3461,2276552.0,
3462,2276220.0,
3463,2276394.0,
3464,2276333.0,
3465,2276569.0,
3466,2276395.0,
3467,2276264.0,
3468,2276382.0,
3469,2276415.0,
3470,2276351.0,
3471,2276266.0,
3472,2276296.0,
3473,2276295.0,
3474,2276574.0,
3475,2276322.0,
3476,2276480.0,
3477,2276345.0,
3478,2276331.0,
3479,2276247.0,
3480,2276297.0,
3481,2276312.0,
3482,2276279.0,
3483,2276569.0,
3484,2276494.0,
3485,2276272.0,
3486,2276307.0,
3487,2276300.0,
3488,2276361.0,
3489,2276534.0,
3490,2276441.0,
3491,2276264.0,
3492,2276271.0,
3493,2276289.0,
3494,2276313.0,
3495,2276364.0,
3496,2276543.0,
3497,2276469.0,
3498,2276526.0,
3499,2276447.0,
3500,2276592.0,
3501,2276307.0,
3502,2276274.0,
3503,2276172.0,
3504,2276296.0,
3505,2276302.0,
3506,2276320.0,
3507,2276273.0,
3508,2276266.0,
3509,2276292.0,
3510,2276520.0,
3511,2276266.0,
3512,2276292.0,
3513,2276306.0,
3514,2276211.0,
3515,2276429.0,
3516,2276268.0,
3517,2276243.0,
3518,2276171.0,
3519,2276258.0,
3520,2276287.0,
3521,2276279.0,
3522,2276385.0,
3523,2276568.0,
3524,2276502.0,
3525,2276263.0,
3526,2276539.0,
3527,2276553.0,
3528,2276543.0,
3529,2276275.0,
3530,2276260.0,
3531,2276220.0,
3532,2276280.0,
3533,2276264.0,
3534,2276257.0,
3535,2276273.0,
3536,2276255.0,
3537,2276301.0,
3538,2276264.0,
3539,2276270.0,
3540,2276286.0,
3541,2276255.0,
3542,2276332.0,
3543,2276309.0,
3544,2276318.0,
3545,2276297.0,
3546,2276338.0,
3547,2276352.0,
3548,2276580.0,
3549,2276341.0,
3550,2276459.0,
3551,2276519.0,
3552,2276238.0,
3553,2276290.0,
3554,2276490.0,
3555,2276393.0,
3556,2276346.0,
3557,2276237.0,
3558,2276296.0,
3559,2276536.0,
3560,2276552.0,
3561,2276452.0,
3562,2276301.0,
3563,2276201.0,
3564,2276307.0,
3565,2276551.0,
3566,2276368.0,
3567,2276516.0,
3568,2276487.0,
3569,2276538.0,
3570,2276229.0,
3571,2276306.0,
3572,2276232.0,
3573,2276327.0,
3574,2276393.0,
3575,2276444.0,
3576,2276596.0,
3577,2276387.0,
3578,2276266.0,
3579,2276310.0,
3580,2276520.0,
3581,2276501.0,
3582,2276418.0,
3583,2276211.0,
3584,2276300.0,
3585,2276292.0,
3586,2276225.0,
3587,2276296.0,
3588,2276434.0,
3589,2276532.0,
3590,2276463.0,
3591,2276273.0,
3592,2276261.0,
3593,2276312.0,
3594,2276301.0,
3595,2276328.0,
3596,2276298.0,
3597,2276294.0,
3598,2276281.0,
3599,2276283.0,
3600,2276523.0,
3601,2276590.0,
3602,2276234.0,
3603,2276215.0,
3604,2276235.0,
3605,2276254.0,
3606,2276207.0,
3607,2276266.0,
3608,2276195.0,
3609,2276301.0,
3610,2276419.0,
3611,2276272.0,
3612,2276377.0,
3613,2276304.0,
3614,2276210.0,
3615,2276285.0,
3616,2276504.0,
3617,2276427.0,
3618,2276369.0,
3619,2276468.0,
3620,2276296.0,
3621,2276416.0,
3622,2276301.0,
3623,2276282.0,
3624,2276252.0,
3625,2276397.0,
3626,2276257.0,
3627,2276398.0,
3628,2276504.0,
3629,2276212.0,
3630,2276506.0,
3631,2276279.0,
3632,2276246.0,
3633,2276279.0,
3634,2276415.0,
3635,2276225.0,
3636,2276415.0,
3637,2276282.0,
3638,2276288.0,
3639,2276174.0,
3640,2276246.0,
3641,2276235.0,
3642,2276212.0,
3643,2276344.0,
3644,2276182.0,
3645,2276143.0,
3646,2276338.0,
3647,2276301.0,
3648,2276551.0,
3649,2276487.0,
3650,2276196.0,
3651,2276227.0,
3652,2276303.0,
3653,2276474.0,
3654,2276278.0,
3655,2276445.0,
3656,2276284.0,
3657,2276258.0,
3658,2276227.0,
3659,2276457.0,
3660,2276395.0,
3661,2276280.0,
3662,2276162.0,
3663,2276303.0,
3664,2276506.0,
3665,2276392.0,
3666,2276169.0,
3667,2276449.0,
3668,2276360.0,
3669,2276489.0,
3670,2276237.0,
3671,2276282.0,
3672,2276255.0,
3673,2276292.0,
3674,2276214.0,
3675,2276471.0,
3676,2276541.0,
3677,2276324.0,
3678,2276371.0,
3679,2276301.0,
3680,2276310.0,
3681,2276337.0,
3682,2276214.0,
3683,2276250.0,
3684,2276417.0,
3685,2276498.0,
3686,2276220.0,
3687,2276488.0,
3688,2276211.0,
3689,2276302.0,
3690,2276360.0,
3691,2276222.0,
3692,2276293.0,
3693,2276347.0,
3694,2276369.0,
3695,2276257.0,
3696,2276493.0,
3697,2276320.0,
3698,2276245.0,
3699,2276286.0,
3700,2276481.0,
3701,2276306.0,
3702,2276339.0,
3703,2276417.0,
3704,2276324.0,
3705,2276303.0,
3706,2276477.0,
3707,2276384.0,
3708,2276523.0,
3709,2276454.0,
3710,2276364.0,
3711,2276253.0,
3712,2276217.0,
3713,2276277.0,
3714,2276353.0,
3715,2276461.0,
3716,2276223.0,
3717,2276225.0,
3718,2276316.0,
3719,2276417.0,
3720,2276236.0,
3721,2276293.0,
3722,2276254.0,
3723,2276458.0,
3724,2276282.0,
3725,2276423.0,
3726,2276251.0,
3727,2276119.0,
3728,2276339.0,
3729,2276195.0,
3730,2276243.0,
3731,2276529.0,
3732,2276437.0,
3733,2276287.0,
3734,2276360.0,
3735,2276226.0,
3736,2276271.0,
3737,2276432.0,
3738,2276466.0,
3739,2276388.0,
3740,2276224.0,
3741,2276550.0,
3742,2276521.0,
3743,2276424.0,
3744,2276194.0,
3745,2276337.0,
3746,2276473.0,
3747,2276195.0,
3748,2276128.0,
3749,2276216.0,
3750,2276221.0,
3751,2276292.0,
3752,2276283.0,
3753,2276386.0,
3754,2276184.0,
3755,2276311.0,
3756,2276310.0,
3757,2276186.0,
3758,2276276.0,
3759,2276256.0,
3760,2276507.0,
3761,2276394.0,
3762,2276255.0,
3763,2276323.0,
3764,2276448.0,
3765,2276252.0,
3766,2276256.0,
3767,2276223.0,
3768,2276251.0,
3769,2276112.0,
3770,2276176.0,
3771,2276247.0,
3772,2276444.0,
3773,2276162.0,
3774,2276183.0,
3775,2276221.0,
3776,2276451.0,
3777,2276195.0,
3778,2276256.0,
3779,2276125.0,
3780,2276257.0,
3781,2276400.0,
3782,2276199.0,
3783,2276248.0,
3784,2276256.0,
3785,2276360.0,
3786,2276349.0,
3787,2276225.0,
3788,2276317.0,
3789,2276393.0,
3790,2276210.0,
3791,2276491.0,
3792,2276413.0,
3793,2276460.0,
3794,2276180.0,
3795,2276292.0,
3796,2276150.0,
3797,2276250.0,
3798,2276259.0,
3799,2276269.0,
3800,2276236.0,
3801,2276213.0,
3802,2276244.0,
3803,2276137.0,
3804,2276267.0,
3805,2276500.0,
3806,2276541.0,
3807,2276448.0,
3808,2276163.0,
3809,2276274.0,
3810,2276358.0,
3811,2276192.0,
3812,2276257.0,
3813,2276309.0,
3814,2276338.0,
3815,2276200.0,
3816,2276229.0,
3817,2276249.0,
3818,2276269.0,
3819,2276233.0,
3820,2276304.0,
3821,2276479.0,
3822,2276252.0,
3823,2276286.0,
3824,2276269.0,
3825,2276257.0,
3826,2276389.0,
3827,2276433.0,
3828,2276296.0,
3829,2276308.0,
3830,2276248.0,
3831,2276417.0,
3832,2276450.0,
3833,2276485.0,
3834,2276177.0,
3835,2276197.0,
3836,2276416.0,
3837,2276179.0,
3838,2276178.0,
3839,2276195.0,
3840,2276223.0,
3841,2276213.0,
3842,2276347.0,
3843,2276196.0,
3844,2276180.0,
3845,2276200.0,
3846,2276401.0,
3847,2276389.0,
3848,2276336.0,
3849,2276224.0,
3850,2276246.0,
3851,2276141.0,
3852,2276202.0,
3853,2276226.0,
3854,2276252.0,
3855,2276184.0,
3856,2276295.0,
3857,2276272.0,
3858,2276438.0,
3859,2276416.0,
3860,2276401.0,
3861,2276307.0,
3862,2276204.0,
3863,2276177.0,
3864,2276248.0,
3865,2276268.0,
3866,2276240.0,
3867,2276292.0,
3868,2276257.0,
3869,2276437.0,
3870,2276473.0,
3871,2276440.0,
3872,2276176.0,
3873,2276349.0,
3874,2276423.0,
3875,2276452.0,
3876,2276173.0,
3877,2276490.0,
3878,2276366.0,
3879,2276195.0,
3880,2276283.0,
3881,2276311.0,
3882,2276320.0,
3883,2276383.0,
3884,2276182.0,
3885,2276224.0,
3886,2276210.0,
3887,2276248.0,
3888,2276298.0,
3889,2276388.0,
3890,2276224.0,
3891,2276451.0,
3892,2276298.0,
3893,2276253.0,
3894,2276301.0,
3895,2276276.0,
3896,2276491.0,
3897,2276229.0,
3898,2276167.0,
3899,2276286.0,
3900,2276218.0,
3901,2276133.0,
3902,2276253.0,
3903,2276479.0,
3904,2276222.0,
3905,2276238.0,
3906,2276260.0,
3907,2276423.0,
3908,2276490.0,
3909,2276142.0,
3910,2276327.0,
3911,2276370.0,
3912,2276496.0,
3913,2276230.0,
3914,2276442.0,
3915,2276162.0,
3916,2276215.0,
3917,2276519.0,
3918,2276388.0,
3919,2276339.0,
3920,2276205.0,
3921,2276147.0,
3922,2276244.0,
3923,2276395.0,
3924,2276361.0,
3925,2276145.0,
3926,2276215.0,
3927,2276399.0,
3928,2276502.0,
3929,2276139.0,
3930,2276413.0,
3931,2276416.0,
3932,2276310.0,
3933,2276276.0,
3934,2276307.0,
3935,2276427.0,
3936,2276289.0,
3937,2276431.0,
3938,2276206.0,
3939,2276416.0,
3940,2276125.0,
3941,2276322.0,
3942,2276370.0,
3943,2276259.0,
3944,2276253.0,
3945,2276406.0,
3946,2276279.0,
3947,2276525.0,
3948,2276211.0,
3949,2276151.0,
3950,2276189.0,
3951,2276419.0,
3952,2276154.0,
3953,2276250.0,
3954,2276181.0,
3955,2276244.0,
3956,2276445.0,
3957,2276139.0,
3958,2276283.0,
3959,2276228.0,
3960,2276217.0,
3961,2276214.0,
3962,2276221.0,
3963,2276503.0,
3964,2276197.0,
3965,2276160.0,
3966,2276410.0,
3967,2276214.0,
3968,2276175.0,
3969,2276195.0,
3970,2276310.0,
3971,2276225.0,
3972,2276253.0,
3973,2276177.0,
3974,2276180.0,
3975,2276199.0,
3976,2276440.0,
3977,2276098.0,
3978,2276199.0,
3979,2276467.0,
3980,2276254.0,
3981,2276312.0,
3982,2276373.0,
3983,2276200.0,
3984,2276127.0,
3985,2276224.0,
3986,2276521.0,
3987,2276247.0,
3988,2276547.0,
3989,2276256.0,
3990,2276406.0,
3991,2276406.0,
3992,2276232.0,
3993,2276236.0,
3994,2276417.0,
3995,2276222.0,
3996,2276275.0,
3997,2276274.0,
3998,2276448.0,
3999,2276239.0,
4000,2276276.0,
4001,2276414.0,
4002,2276151.0,
4003,2276463.0,
4004,2276195.0,
4005,2276434.0,
4006,2276298.0,
4007,2276419.0,
4008,2276374.0,
4009,2276227.0,
4010,2276195.0,
4011,2276457.0,
4012,2276218.0,
4013,2276407.0,
4014,2276186.0,
4015,2276229.0,
4016,2276468.0,
4017,2276094.0,
4018,2276235.0,
4019,2276177.0,
4020,2276251.0,
4021,2276242.0,
4022,2276228.0,
4023,2276135.0,
4024,2276298.0,
4025,2276299.0,
4026,2276263.0,
4027,2276462.0,
4028,2276067.0,
4029,2276207.0,
4030,2276421.0,
4031,2276378.0,
4032,2276374.0,
4033,2276165.0,
4034,2276233.0,
4035,2276486.0,
4036,2276231.0,
4037,2276419.0,
4038,2276147.0,
4039,2276212.0,
4040,2276446.0,
4041,2276206.0,
4042,2276208.0,
4043,2276438.0,
4044,2276423.0,
4045,2276377.0,
4046,2276209.0,
4047,2276414.0,
4048,2276389.0,
4049,2276222.0,
4050,2276273.0,
4051,2276188.0,
4052,2276152.0,
4053,2276242.0,
4054,2276390.0,
4055,2276176.0,
4056,2276277.0,
4057,2276295.0,
4058,2276219.0,
4059,2276274.0,
4060,2276319.0,
4061,2276192.0,
4062,2276168.0,
4063,2276461.0,
4064,2276091.0,
4065,2276240.0,
4066,2276332.0,
4067,2276174.0,
4068,2276188.0,
4069,2276183.0,
4070,2276214.0,
4071,2276437.0,
4072,2276439.0,
4073,2276381.0,
4074,2276227.0,
4075,2276238.0,
4076,2276196.0,
4077,2276295.0,
4078,2276132.0,
4079,2276235.0,
4080,2276314.0,
4081,2276290.0,
4082,2276254.0,
4083,2276416.0,
4084,2276186.0,
4085,2276180.0,
4086,2276162.0,
4087,2276231.0,
4088,2276169.0,
4089,2276224.0,
4090,2276394.0,
4091,2276177.0,
4092,2276208.0,
4093,2276440.0,
4094,2276335.0,
4095,2276145.0,
4096,2276491.0,
4097,2276413.0,
4098,2276364.0,
4099,2276267.0,
4100,2276220.0,
4101,2276274.0,
4102,2276185.0,
4103,2276307.0,
4104,2276330.0,
4105,2276300.0,
4106,2276345.0,
4107,2276178.0,
4108,2276452.0,
4109,2276110.0,
4110,2276219.0,
4111,2276468.0,
4112,2276422.0,
4113,2276162.0,
4114,2276231.0,
4115,2276404.0,
4116,2276242.0,
4117,2276449.0,
4118,2276140.0,
4119,2276388.0,
4120,2276205.0,
4121,2276155.0,
4122,2276191.0,
4123,2276268.0,
4124,2276434.0,
4125,2276472.0,
4126,2276256.0,
4127,2276304.0,
4128,2276376.0,
4129,2276254.0,
4130,2276236.0,
4131,2276429.0,
4132,2276499.0,
4133,2276199.0,
4134,2276205.0,
4135,2276500.0,
4136,2276415.0,
4137,2276151.0,
4138,2276187.0,
4139,2276376.0,
4140,2276208.0,
4141,2276487.0,
4142,2276216.0,
4143,2276450.0,
4144,2276250.0,
4145,2276370.0,
4146,2276167.0,
4147,2276482.0,
4148,2276151.0,
4149,2276428.0,
4150,2276426.0,
4151,2276181.0,
4152,2276404.0,
4153,2276204.0,
4154,2276562.0,
4155,2276382.0,
4156,2276092.0,
4157,2276355.0,
4158,2276189.0,
4159,2276212.0,
4160,2276317.0,
4161,2276263.0,
4162,2276425.0,
4163,2276142.0,
4164,2276370.0,
4165,2276216.0,
4166,2276251.0,
4167,2276130.0,
4168,2276315.0,
4169,2276419.0,
4170,2276153.0,
4171,2276322.0,
4172,2276302.0,
4173,2276259.0,
4174,2276131.0,
4175,2276128.0,
4176,2276438.0,
4177,2276253.0,
4178,2276378.0,
4179,2276458.0,
4180,2276502.0,
4181,2276172.0,
4182,2276409.0,
4183,2276159.0,
4184,2276148.0,
4185,2276246.0,
4186,2276162.0,
4187,2276301.0,
4188,2276206.0,
4189,2276442.0,
4190,2276503.0,
4191,2276392.0,
4192,2276304.0,
4193,2276151.0,
4194,2276267.0,
4195,2276185.0,
4196,2276400.0,
4197,2276173.0,
4198,2276285.0,
4199,2276247.0,
4200,2276384.0,
4201,2276173.0,
4202,2276338.0,
4203,2276235.0,
4204,2276394.0,
4205,2276255.0,
4206,2276223.0,
4207,2276299.0,
4208,2276224.0,
4209,2276424.0,
4210,2276171.0,
4211,2276336.0,
4212,2276439.0,
4213,2276206.0,
4214,2276338.0,
4215,2276181.0,
4216,2276151.0,
4217,2276417.0,
4218,2276177.0,
4219,2276306.0,
4220,2276122.0,
4221,2276325.0,
4222,2276138.0,
4223,2276262.0,
4224,2276349.0,
4225,2276219.0,
4226,2276191.0,
4227,2276352.0,
4228,2276226.0,
4229,2276444.0,
4230,2276191.0,
4231,2276173.0,
4232,2276230.0,
4233,2276236.0,
4234,2276265.0,
4235,2276210.0,
4236,2276164.0,
4237,2276364.0,
4238,2276133.0,
4239,2276346.0,
4240,2276168.0,
4241,2276343.0,
4242,2276168.0,
4243,2276243.0,
4244,2276230.0,
4245,2276433.0,
4246,2276374.0,
4247,2276196.0,
4248,2276438.0,
4249,2276220.0,
4250,2276223.0,
4251,2276071.0,
4252,2276269.0,
4253,2276353.0,
4254,2276222.0,
4255,2276450.0,
4256,2276148.0,
4257,2276163.0,
4258,2276498.0,
4259,2276420.0,
4260,2276185.0,
4261,2276493.0,
4262,2276140.0,
4263,2276187.0,
4264,2276345.0,
4265,2276144.0,
4266,2276253.0,
4267,2276290.0,
4268,2276366.0,
4269,2276194.0,
4270,2276121.0,
4271,2276276.0,
4272,2276224.0,
4273,2276485.0,
4274,2276187.0,
4275,2276384.0,
4276,2276423.0,
4277,2276231.0,
4278,2276376.0,
4279,2276311.0,
4280,2276248.0,
4281,2276420.0,
4282,2276344.0,
4283,2276253.0,
4284,2276276.0,
4285,2276386.0,
4286,2276190.0,
4287,2276340.0,
4288,2276166.0,
4289,2276384.0,
4290,2276456.0,
4291,2276252.0,
4292,2276163.0,
4293,2276436.0,
4294,2276288.0,
4295,2276406.0,
4296,2276449.0,
4297,2276272.0,
4298,2276146.0,
4299,2276105.0,
4300,2276230.0,
4301,2276132.0,
4302,2276406.0,
4303,2276196.0,
4304,2276414.0,
4305,2276225.0,
4306,2276402.0,
4307,2276269.0,
4308,2276215.0,
4309,2276300.0,
4310,2276156.0,
4311,2276493.0,
4312,2276121.0,
4313,2276513.0,
4314,2276303.0,
4315,2276130.0,
4316,2276399.0,
4317,2276479.0,
4318,2276381.0,
4319,2276227.0,
4320,2276389.0,
4321,2276156.0,
4322,2276372.0,
4323,2276243.0,
4324,2276171.0,
4325,2276360.0,
4326,2276252.0,
4327,2276420.0,
4328,2276171.0,
4329,2276382.0,
4330,2276139.0,
4331,2276387.0,
4332,2276210.0,
4333,2276431.0,
4334,2276209.0,
4335,2276365.0,
4336,2276168.0,
4337,2276174.0,
4338,2276376.0,
4339,2276162.0,
4340,2276337.0,
4341,2276072.0,
4342,2276097.0,
4343,2276209.0,
4344,2276426.0,
4345,2276228.0,
4346,2276079.0,
4347,2276280.0,
4348,2276287.0,
4349,2276289.0,
4350,2276318.0,
4351,2276195.0,
4352,2276435.0,
4353,2276380.0,
4354,2276154.0,
4355,2276337.0,
4356,2276521.0,
4357,2276182.0,
4358,2276146.0,
4359,2276240.0,
4360,2276444.0,
4361,2276171.0,
4362,2276359.0,
4363,2276276.0,
4364,2276318.0,
4365,2276311.0,
4366,2276166.0,
4367,2276349.0,
4368,2276143.0,
4369,2276363.0,
4370,2276268.0,
4371,2276220.0,
4372,2276419.0,
4373,2276258.0,
4374,2276146.0,
4375,2276427.0,
4376,2276294.0,
4377,2276282.0,
4378,2276338.0,
4379,2276221.0,
4380,2276356.0,
4381,2276237.0,
4382,2276191.0,
4383,2276322.0,
4384,2276158.0,
4385,2276067.0,
4386,2276325.0,
4387,2276104.0,
4388,2276174.0,
4389,2276196.0,
4390,2276461.0,
4391,2276142.0,
4392,2276464.0,
4393,2276147.0,
4394,2276354.0,
4395,2276416.0,
4396,2276200.0,
4397,2276313.0,
4398,2276174.0,
4399,2276241.0,
4400,2276129.0,
4401,2276188.0,
4402,2276347.0,
4403,2276089.0,
4404,2276385.0,
4405,2276191.0,
4406,2276295.0,
4407,2276228.0,
4408,2276265.0,
4409,2276177.0,
4410,2276254.0,
4411,2276288.0,
4412,2276213.0,
4413,2276418.0,
4414,2276198.0,
4415,2276402.0,
4416,2276181.0,
4417,2276484.0,
4418,2276127.0,
4419,2276245.0,
4420,2276441.0,
4421,2276178.0,
4422,2276447.0,
4423,2276205.0,
4424,2276100.0,
4425,2276285.0,
4426,2276198.0,
4427,2276410.0,
4428,2276406.0,
4429,2276288.0,
4430,2276147.0,
4431,2276422.0,
4432,2276259.0,
4433,2276170.0,
4434,2276393.0,
4435,2276171.0,
4436,2276214.0,
4437,2276282.0,
4438,2276199.0,
4439,2276424.0,
4440,2276206.0,
4441,2276419.0,
4442,2276209.0,
4443,2276359.0,
4444,2276217.0,
4445,2276188.0,
4446,2276153.0,
4447,2276311.0,
4448,2276193.0,
4449,2276378.0,
4450,2276275.0,
4451,2276419.0,
4452,2276251.0,
4453,2276123.0,
4454,2276278.0,
4455,2276210.0,
4456,2276321.0,
4457,2276172.0,
4458,2276341.0,
4459,2276260.0,
4460,2276272.0,
4461,2276427.0,
4462,2276304.0,
4463,2276326.0,
4464,2276296.0,
4465,2276183.0,
4466,2276207.0,
4467,2276224.0,
4468,2276264.0,
4469,2276172.0,
4470,2276373.0,
4471,2276225.0,
4472,2276345.0,
4473,2276231.0,
4474,2276442.0,
4475,2276222.0,
4476,2276427.0,
4477,2276278.0,
4478,2276437.0,
4479,2276199.0,
4480,2276384.0,
4481,2276185.0,
4482,2276475.0,
4483,2276195.0,
4484,2276433.0,
4485,2276097.0,
4486,2276504.0,
4487,2276222.0,
4488,2276348.0,
4489,2276236.0,
4490,2276251.0,
4491,2276181.0,
4492,2276275.0,
4493,2276425.0,
4494,2276473.0,
4495,2276138.0,
4496,2276488.0,
4497,2276259.0,
4498,2276431.0,
4499,2276370.0,
4500,2276216.0,
4501,2276382.0,
4502,2276199.0,
4503,2276358.0,
4504,2276269.0,
4505,2276381.0,
4506,2276415.0,
4507,2276139.0,
4508,2276287.0,
4509,2276274.0,
4510,2276124.0,
4511,2276448.0,
4512,2276160.0,
4513,2276459.0,
4514,2276169.0,
4515,2276272.0,
4516,2276164.0,
4517,2276126.0,
4518,2276434.0,
4519,2276206.0,
4520,2276458.0,
4521,2276432.0,
4522,2276335.0,
4523,2276376.0,
4524,2276449.0,
4525,2276171.0,
4526,2276367.0,
4527,2276274.0,
4528,2276172.0,
4529,2276385.0,
4530,2276275.0,
4531,2276182.0,
4532,2276402.0,
4533,2276184.0,
4534,2276330.0,
4535,2276273.0,
4536,2276179.0,
4537,2276525.0,
4538,2276163.0,
4539,2276433.0,
4540,2276230.0,
4541,2276430.0,
4542,2276385.0,
4543,2276195.0,
4544,2276278.0,
4545,2276181.0,
4546,2276247.0,
4547,2276446.0,
4548,2276350.0,
4549,2276308.0,
4550,2276442.0,
4551,2276180.0,
4552,2276420.0,
4553,2276137.0,
4554,2276273.0,
4555,2276370.0,
4556,2276155.0,
4557,2276317.0,
4558,2276136.0,
4559,2276269.0,
4560,2276258.0,
4561,2276356.0,
4562,2276227.0,
4563,2276415.0,
4564,2276256.0,
4565,2276209.0,
4566,2276447.0,
4567,2276200.0,
4568,2276440.0,
4569,2276210.0,
4570,2276312.0,
4571,2276239.0,
4572,2276306.0,
4573,2276219.0,
4574,2276441.0,
4575,2276136.0,
4576,2276449.0,
4577,2276169.0,
4578,2276383.0,
4579,2276272.0,
4580,2276403.0,
4581,2276316.0,
4582,2276265.0,
4583,2276382.0,
4584,2276345.0,
4585,2276199.0,
4586,2276344.0,
4587,2276160.0,
4588,2276242.0,
4589,2276147.0,
4590,2276390.0,
4591,2276241.0,
4592,2276395.0,
4593,2276146.0,
4594,2276496.0,
4595,2276494.0,
4596,2276399.0,
4597,2276458.0,
4598,2276177.0,
4599,2276251.0,
4600,2276354.0,
4601,2276114.0,
4602,2276213.0,
4603,2276322.0,
4604,2276392.0,
4605,2276414.0,
4606,2276487.0,
4607,2276250.0,
4608,2276328.0,
4609,2276236.0,
4610,2276145.0,
4611,2276247.0,
4612,2276168.0,
4613,2276191.0,
4614,2276235.0,
4615,2276403.0,
4616,2276232.0,
4617,2276370.0,
4618,2276127.0,
4619,2276378.0,
4620,2276182.0,
4621,2276315.0,
4622,2276272.0,
4623,2276311.0,
4624,2276236.0,
4625,2276185.0,
4626,2276292.0,
4627,2276307.0,
4628,2276405.0,
4629,2276194.0,
4630,2276483.0,
4631,2276150.0,
4632,2276190.0,
4633,2276305.0,
4634,2276132.0,
4635,2276453.0,
4636,2276208.0,
4637,2276394.0,
4638,2276192.0,
4639,2276141.0,
4640,2276256.0,
4641,2276467.0,
4642,2276336.0,
4643,2276176.0,
4644,2276234.0,
4645,2276288.0,
4646,2276350.0,
4647,2276169.0,
4648,2276450.0,
4649,2276171.0,
4650,2276115.0,
4651,2276194.0,
4652,2276329.0,
4653,2276114.0,
4654,2276397.0,
4655,2276452.0,
4656,2276351.0,
4657,2276154.0,
4658,2276218.0,
4659,2276407.0,
4660,2276180.0,
4661,2276417.0,
4662,2276167.0,
4663,2276373.0,
4664,2276333.0,
4665,2276209.0,
4666,2276453.0,
4667,2276100.0,
4668,2276192.0,
4669,2276227.0,
4670,2276144.0,
4671,2276194.0,
4672,2276433.0,
4673,2276178.0,
4674,2276188.0,
4675,2276145.0,
4676,2276278.0,
4677,2276405.0,
4678,2276303.0,
4679,2276119.0,
4680,2276295.0,
4681,2276107.0,
4682,2276423.0,
4683,2276064.0,
4684,2276267.0,
4685,2276343.0,
4686,2276111.0,
4687,2276341.0,
4688,2276237.0,
4689,2276142.0,
4690,2276367.0,
4691,2276266.0,
4692,2276153.0,
4693,2276337.0,
4694,2276258.0,
4695,2276203.0,
4696,2276427.0,
4697,2276203.0,
4698,2276301.0,
4699,2276440.0,
4700,2276168.0,
4701,2276435.0,
4702,2276426.0,
4703,2276227.0,
4704,2276423.0,
4705,2276232.0,
4706,2276425.0,
4707,2276110.0,
4708,2276254.0,
4709,2276145.0,
4710,2276293.0,
4711,2276205.0,
4712,2276422.0,
4713,2276184.0,
4714,2276345.0,
4715,2276196.0,
4716,2276404.0,
4717,2276158.0,
4718,2276222.0,
4719,2276241.0,
4720,2276114.0,
4721,2276239.0,
4722,2276418.0,
4723,2276374.0,
4724,2276121.0,
4725,2276100.0,
4726,2276240.0,
4727,2276116.0,
4728,2276369.0,
4729,2276512.0,
4730,2276383.0,
4731,2276141.0,
4732,2276200.0,
4733,2276220.0,
4734,2276110.0,
4735,2276240.0,
4736,2276113.0,
4737,2276266.0,
4738,2276134.0,
4739,2276269.0,
4740,2276286.0,
4741,2276254.0,
4742,2276102.0,
4743,2276161.0,
4744,2276424.0,
4745,2276096.0,
4746,2276168.0,
4747,2276282.0,
4748,2276141.0,
4749,2276154.0,
4750,2276437.0,
4751,2276180.0,
4752,2276329.0,
4753,2276197.0,
4754,2276301.0,
4755,2276206.0,
4756,2276394.0,
4757,2276202.0,
4758,2276426.0,
4759,2276326.0,
4760,2276169.0,
4761,2276178.0,
4762,2276269.0,
4763,2276142.0,
4764,2276377.0,
4765,2276188.0,
4766,2276307.0,
4767,2276160.0,
4768,2276393.0,
4769,2276190.0,
4770,2276161.0,
4771,2276204.0,
4772,2276350.0,
4773,2276340.0,
4774,2276251.0,
4775,2276200.0,
4776,2276367.0,
4777,2276187.0,
4778,2276361.0,
4779,2276330.0,
4780,2276150.0,
4781,2276351.0,
4782,2276259.0,
4783,2276200.0,
4784,2276345.0,
4785,2276170.0,
4786,2276386.0,
4787,2276244.0,
4788,2276181.0,
4789,2276421.0,
4790,2276245.0,
4791,2276121.0,
4792,2276295.0,
4793,2276342.0,
4794,2276182.0,
4795,2276239.0,
4796,2276404.0,
4797,2276263.0,
4798,2276313.0,
4799,2276239.0,
4800,2276139.0,
4801,2276376.0,
4802,2276199.0,
4803,2276335.0,
4804,2276189.0,
4805,2276364.0,
4806,2276220.0,
4807,2276113.0,
4808,2276413.0,
4809,2276152.0,
4810,2276246.0,
4811,2276075.0,
4812,2276220.0,
4813,2276371.0,
4814,2276139.0,
4815,2276070.0,
4816,2276218.0,
4817,2276171.0,
4818,2276439.0,
4819,2276124.0,
4820,2276386.0,
4821,2276212.0,
4822,2276503.0,
4823,2276179.0,
4824,2276270.0,
4825,2276374.0,
4826,2276155.0,
4827,2276274.0,
4828,2276085.0,
4829,2276278.0,
4830,2276110.0,
4831,2276200.0,
4832,2276131.0,
4833,2276266.0,
4834,2276178.0,
4835,2276183.0,
4836,2276331.0,
4837,2276184.0,
4838,2276353.0,
4839,2276241.0,
4840,2276380.0,
4841,2276178.0,
4842,2276350.0,
4843,2276265.0,
4844,2276297.0,
4845,2276233.0,
4846,2276184.0,
4847,2276195.0,
4848,2276173.0,
4849,2276177.0,
4850,2276125.0,
4851,2276406.0,
4852,2276120.0,
4853,2276346.0,
4854,2276160.0,
4855,2276455.0,
4856,2276162.0,
4857,2276391.0,
4858,2276145.0,
4859,2276197.0,
4860,2276163.0,
4861,2276158.0,
4862,2276171.0,
4863,2276462.0,
4864,2276106.0,
4865,2276392.0,
4866,2276237.0,
4867,2276393.0,
4868,2276151.0,
4869,2276379.0,
4870,2276251.0,
4871,2276334.0,
4872,2276221.0,
4873,2276154.0,
4874,2276395.0,
4875,2276147.0,
4876,2276214.0,
4877,2276401.0,
4878,2276150.0,
4879,2276333.0,
4880,2276099.0,
4881,2276346.0,
4882,2276294.0,
4883,2276285.0,
4884,2276380.0,
4885,2276222.0,
4886,2276312.0,
4887,2276215.0,
4888,2276258.0,
4889,2276217.0,
4890,2276296.0,
4891,2276208.0,
4892,2276319.0,
4893,2276164.0,
4894,2276458.0,
4895,2276261.0,
4896,2276187.0,
4897,2276433.0,
4898,2276244.0,
4899,2276348.0,
4900,2276458.0,
4901,2276448.0,
4902,2276166.0,
4903,2276429.0,
4904,2276179.0,
4905,2276348.0,
4906,2276218.0,
4907,2276074.0,
4908,2276225.0,
4909,2276120.0,
4910,2276374.0,
4911,2276159.0,
4912,2276350.0,
4913,2276250.0,
4914,2276162.0,
4915,2276233.0,
4916,2276103.0,
4917,2276169.0,
4918,2276331.0,
4919,2276172.0,
4920,2276293.0,
4921,2276183.0,
4922,2276357.0,
4923,2276138.0,
4924,2276352.0,
4925,2276223.0,
4926,2276120.0,
4927,2276333.0,
4928,2276148.0,
4929,2276211.0,
4930,2276343.0,
4931,2276164.0,
4932,2276234.0,
4933,2276297.0,
4934,2276412.0,
4935,2276124.0,
4936,2276416.0,
4937,2276142.0,
4938,2276468.0,
4939,2276183.0,
4940,2276378.0,
4941,2276208.0,
4942,2276178.0,
4943,2276078.0,
4944,2276165.0,
4945,2276417.0,
4946,2276193.0,
4947,2276177.0,
4948,2276420.0,
4949,2276192.0,
4950,2276156.0,
4951,2276263.0,
4952,2276146.0,
4953,2276135.0,
4954,2276188.0,
4955,2276054.0,
4956,2276215.0,
4957,2276395.0,
4958,2276197.0,
4959,2276389.0,
4960,2276151.0,
4961,2276207.0,
4962,2276406.0,
4963,2276080.0,
4964,2276373.0,
4965,2276150.0,
4966,2276262.0,
4967,2276118.0,
4968,2276376.0,
4969,2276187.0,
4970,2276390.0,
4971,2276242.0,
4972,2276220.0,
4973,2276300.0,
4974,2276148.0,
4975,2276350.0,
4976,2276242.0,
4977,2276375.0,
4978,2276194.0,
4979,2276348.0,
4980,2276153.0,
4981,2276453.0,
4982,2276141.0,
4983,2276336.0,
4984,2276209.0,
4985,2276374.0,
4986,2276139.0,
4987,2276206.0,
4988,2276363.0,
4989,2276069.0,
4990,2276116.0,
4991,2276388.0,
4992,2276133.0,
4993,2276220.0,
4994,2276157.0,
4995,2276218.0,
4996,2276068.0,
4997,2276209.0,
4998,2276428.0,
4999,2276165.0,
5000,2276351.0,
5001,2276154.0,
5002,2276220.0,
5003,2276371.0,
5004,2276289.0,
5005,2276220.0,
5006,2276186.0,
5007,2276362.0,
5008,2276145.0,
5009,2276329.0,
5010,2276242.0,
5011,2276222.0,
5012,2276359.0,
5013,2276226.0,
5014,2276286.0,
5015,2276170.0,
5016,2276386.0,
5017,2276225.0,
5018,2276448.0,
5019,2276116.0,
5020,2276390.0,
5021,2276095.0,
5022,2276319.0,
5023,2276142.0,
5024,2276326.0,
5025,2276147.0,
5026,2276272.0,
5027,2276167.0,
5028,2276407.0,
5029,2276212.0,
5030,2276382.0,
5031,2276209.0,
5032,2276342.0,
5033,2276399.0,
5034,2276151.0,
5035,2276406.0,
5036,2276281.0,
5037,2276247.0,
5038,2276274.0,
5039,2277438.0,
5040,2283387.0,
5041,2242604.0,
5042,2194370.0,
5043,2231679.0,
5044,2343457.0,
5045,2392300.0,
5046,2604929.0,
5047,2465556.0,
5048,2497540.0,
5049,2567469.0,
5050,2605759.0,
5051,3480028.0,
5052,3124224.0,
5053,4170661.0,
5054,4175696.0,
5055,4162954.0,
5056,3049132.0,
5057,2372391.0,
5058,2199150.0,
5059,2160832.0,
5060,2162230.0,
5061,2230794.0,
5062,2301454.0,
5063,2281677.0,
5064,2293942.0,
5065,2294214.0,
5066,2267821.0,
5067,2333989.0,
5068,2777572.0,
5069,3028225.0,
5070,4139758.0,
5071,4157556.0,
5072,4162231.0,
5073,4180759.0,
5074,4182919.0,
5075,4177090.0,
5076,4182670.0,
5077,4186973.0,
5078,4185934.0,
5079,4184157.0,
5080,4182941.0,
5081,4181734.0,
5082,4179869.0,
5083,4183629.0,
5084,4186931.0,
5085,4188164.0,
5086,4187798.0,
5087,4187305.0,
5088,4186908.0,
5089,4185484.0,
5090,4185203.0,
5091,4182515.0,
5092,4172500.0,
5093,4161255.0,
5094,4148823.0,
5095,4146538.0,
5096,4150400.0,
5097,4151892.0,
5098,4144705.0,
5099,3284810.0,
5100,2643669.0,
5101,2743379.0,
5102,2725519.0,
5103,2599689.0,
5104,2408036.0,
5105,2431266.0,
5106,2445920.0,
5107,2433029.0,
5108,2460145.0,
5109,2568440.0,
5110,2975250.0,
5111,4153789.0,
5112,4178968.0,
5113,4189355.0,
5114,4190533.0,
5115,4190713.0,
5116,4191198.0,
5117,4191276.0,
5118,4191368.0,
5119,4191322.0,
5120,4190831.0,
5121,4190456.0,
5122,4190616.0,
5123,4190305.0,
5124,4188149.0,
5125,4185985.0,
5126,4187931.0,
5127,4187605.0,
5128,4181357.0,
5129,4179836.0,
5130,4179334.0,
5131,4180666.0,
5132,4179666.0,
5133,4179384.0,
5134,4178416.0,
5135,4177669.0,
5136,4178843.0,
5137,4177572.0,
5138,4173028.0,
5139,4162908.0,
5140,4152213.0,
5141,4145398.0,
5142,4143851.0,
5143,4119636.0,
5144,4088461.0,
5145,4170696.0,
5146,4160803.0,
5147,4155556.0,
5148,4168032.0,
5149,4143405.0,
5150,4185324.0,
5151,4185414.0,
5152,4181066.0,
5153,4188420.0,
5154,4189428.0,
5155,4183068.0,
5156,4136581.0,
5157,4141455.0,
5158,4165151.0,
5159,4133291.0,
5160,4138926.0,
5161,4172513.0,
5162,4190840.0,
5163,4192074.0,
5164,4183234.0,
5165,4190303.0,
5166,4192721.0,
5167,4193052.0,
5168,4193129.0,
5169,4193697.0,
5170,4193752.0,
5171,4192323.0,
5172,4192702.0,
5173,4192340.0,
5174,4192119.0,
5175,4192760.0,
5176,4193017.0,
5177,4192059.0,
5178,4192385.0,
5179,4192182.0,
5180,4191007.0,
5181,4190072.0,
5182,4189359.0,
5183,4188786.0,
5184,4187811.0,
5185,4182554.0,
5186,4180390.0,
5187,4179226.0,
5188,4179701.0,
5189,4178310.0,
5190,4179422.0,
5191,4178850.0,
5192,4178245.0,
5193,4179204.0,
5194,4181491.0,
5195,4182740.0,
5196,4183249.0,
5197,4184467.0,
5198,4183302.0,
5199,4182856.0,
5200,4181076.0,
5201,3715964.0,
5202,3886650.0,
5203,2568456.0,
5204,1651172.0,
5205,-7568.0,
5206,-2611.0,
5207,-2750.0,
5208,-2550.0,
5209,-4372.0,
5210,4181490.0,
5211,4185287.0,
5212,4186901.0,
5213,-3887.0,
5214,-1761.0,
5215,-1841.0,
5216,-2289.0,
5217,-2051.0,
5218,-1327.0,
5219,-999.0,
5220,-904.0,
5221,-968.0,
5222,-2062.0,
5223,-1412.0,
5224,-3125.0,
5225,-7829.0,
5226,-390.0,
5227,-917.0,
5228,-901.0,
5229,-323.0,
5230,-223.0,
5231,-166.0,
5232,-158.0,
5233,-135.0,
5234,-122.0,
5235,-200.0,
5236,-1285.0,
5237,-2037.0,
5238,-1924.0,
5239,-1575.0,
5240,-1069.0,
5241,-722.0,
5242,-579.0,
5243,-353.0,
5244,-268.0,
5245,-98.0,
5246,-44.0,
5247,-25.0,
5248,-17.0,
5249,-19.0,
5250,-18.0,
5251,-66.0,
5252,-20.0,
5253,-74.0,
5254,8.0,
5255,3.0,
5256,-45.0,
5257,-62.0,
5258,-121.0,
5259,-48.0,
5260,-48.0,
5261,-121.0,
5262,-156.0,
5263,-127.0,
5264,-124.0,
5265,-203.0,
5266,-144.0,
5267,-101.0,
5268,-81.0,
5269,-46.0,
5270,-46.0,
5271,-7.0,
5272,21.0,
5273,29.0,
5274,25.0,
5275,14.0,
5276,22.0,
5277,20.0,
5278,-54.0,
5279,40.0,
5280,5.0,
5281,21.0,
5282,-9.0,
5283,-4.0,
5284,4.0,
5285,28.0,
5286,50.0,
5287,-15.0,
5288,-11.0,
5289,11.0,
5290,2640403.0,
5291,2641142.0,
5292,2641024.0,
5293,2640693.0,
5294,2640810.0,
5295,2641092.0,
5296,2640637.0,
5297,2640815.0,
5298,2336142.0,
5299,2337654.0,
5300,2338358.0,
5301,2340839.0,
5302,2341684.0,
5303,2139620.0,
5304,2139169.0,
5305,2132094.0,
5306,2121548.0,
5307,2116971.0,
5308,2058903.0,
5309,2069737.0,
5310,2080196.0,
5311,2101707.0,
5312,2107199.0,
5313,2118801.0,
5314,2130897.0,
5315,2141285.0,
5316,2154918.0,
5317,2173119.0,
5318,2200598.0,
5319,2239882.0,
5320,2281339.0,
5321,2321282.0,
5322,2358388.0,
5323,2358351.0,
5324,2352894.0,
5325,2351793.0,
5326,2354488.0,
5327,2360398.0,
5328,2355736.0,
5329,2371432.0,
5330,2389591.0,
5331,2414153.0,
5332,2437191.0,
5333,2444397.0,
5334,2466700.0,
5335,2481074.0,
5336,2492738.0,
5337,2508562.0,
5338,2519472.0,
5339,2518013.0,
5340,2514748.0,
5341,2515774.0,
5342,2520091.0,
5343,2512595.0,
5344,2503766.0,
5345,2498532.0,
5346,2496516.0,
5347,2501229.0,
5348,2519163.0,
5349,2517057.0,
5350,2517827.0,
5351,2528906.0,
5352,2537651.0,
5353,2539410.0,
5354,2533497.0,
5355,2527966.0,
5356,2523594.0,
5357,2521964.0,
5358,2519843.0,
5359,2516899.0,
5360,2510078.0,
5361,2506202.0,
5362,2501699.0,
5363,2492480.0,
5364,2494236.0,
5365,2519358.0,
5366,2519642.0,
5367,2513862.0,
5368,2503078.0,
5369,2496430.0,
5370,2504261.0,
5371,2503823.0,
5372,2497256.0,
5373,2499891.0,
5374,2502234.0,
5375,2498949.0,
5376,2497972.0,
5377,2494473.0,
5378,2491936.0,
5379,2492324.0,
5380,2493080.0,
5381,2484936.0,
5382,2495997.0,
5383,2507745.0,
5384,2494389.0,
5385,2483786.0,
5386,2476963.0,
5387,2466986.0,
5388,2456145.0,
5389,2443398.0,
5390,2432928.0,
5391,2427921.0,
5392,2432499.0,
5393,2436325.0,
5394,2456744.0,
5395,2478479.0,
5396,2508313.0,
5397,2541630.0,
5398,2537918.0,
5399,2528381.0,
5400,2493053.0,
5401,2439044.0,
5402,2516729.0,
5403,2529887.0,
5404,2517600.0,
5405,2518112.0,
5406,2522986.0,
5407,2529982.0,
5408,2531626.0,
5409,2535101.0,
5410,2548906.0,
5411,2560161.0,
5412,2593854.0,
5413,2595065.0,
5414,2591491.0,
5415,2587773.0,
5416,2593681.0,
5417,2610311.0,
5418,2615018.0,
5419,2610764.0,
5420,2619119.0,
5421,2623353.0,
5422,2631730.0,
5423,2698286.0,
5424,3221144.0,
5425,4194206.0,
5426,3366445.0,
5427,2835938.0,
5428,2705968.0,
5429,2623570.0,
5430,2567135.0,
5431,2544187.0,
5432,2540349.0,
5433,2531278.0,
5434,2511230.0,
5435,2501123.0,
5436,2478524.0,
5437,2474702.0,
5438,2486981.0,
5439,2511813.0,
5440,2517925.0,
5441,2483232.0,
5442,2453016.0,
5443,2454043.0,
5444,2437794.0,
5445,2442457.0,
5446,2456439.0,
5447,2466632.0,
5448,2443635.0,
5449,2436077.0,
5450,2422058.0,
5451,2409306.0,
5452,2396270.0,
5453,2380135.0,
5454,2362669.0,
5455,2358666.0,
5456,2349882.0,
5457,2334455.0,
5458,2335846.0,
5459,2345923.0,
5460,2362683.0,
5461,2372965.0,
5462,2559995.0,
5463,2700091.0,
5464,2691821.0,
5465,2676450.0,
5466,2656557.0,
5467,2609488.0,
5468,2613319.0,
5469,2623810.0,
5470,2630682.0,
5471,2620346.0,
5472,2618836.0,
5473,2624993.0,
5474,2619049.0,
5475,2599657.0,
5476,2597135.0,
5477,2585217.0,
5478,2571340.0,
5479,2556719.0,
5480,2542912.0,
5481,2538412.0,
5482,2524630.0,
5483,2513000.0,
5484,2502209.0,
5485,2491888.0,
5486,2477086.0,
5487,2473515.0,
5488,2461361.0,
5489,2451798.0,
5490,2436781.0,
5491,2422897.0,
5492,2422157.0,
5493,2424743.0,
5494,2434767.0,
5495,2440590.0,
5496,2441548.0,
5497,2456566.0,
5498,2456525.0,
5499,2449437.0,
5500,2479401.0,
5501,2503303.0,
5502,2565206.0,
5503,2558115.0,
5504,2561954.0,
5505,2623599.0,
5506,2679811.0,
5507,2686731.0,
5508,2658367.0,
5509,2604030.0,
5510,2601150.0,
5511,2679449.0,
5512,2711432.0,
5513,2735107.0,
5514,2745721.0,
5515,2739084.0,
5516,2766579.0,
5517,2778853.0,
5518,2783870.0,
5519,2786596.0,
5520,2798592.0,
5521,2811786.0,
5522,2845250.0,
5523,2881308.0,
5524,2895682.0,
5525,2911713.0,
5526,2924561.0,
5527,2920795.0,
5528,2938011.0,
5529,2970873.0,
5530,2976735.0,
5531,3014610.0,
5532,3026272.0,
5533,3056694.0,
5534,3074566.0,
5535,3117548.0,
5536,3115840.0,
5537,3147538.0,
5538,3182156.0,
5539,3210627.0,
5540,3248011.0,
5541,3265964.0,
5542,3289131.0,
5543,3288486.0,
5544,3320664.0,
5545,3348335.0,
5546,3370893.0,
5547,3365847.0,
5548,3309205.0,
5549,3242315.0,
5550,3048050.0,
5551,3001192.0,
5552,3050512.0,
5553,3093138.0,
5554,3096252.0,
5555,3130914.0,
5556,3145649.0,
5557,3113610.0,
5558,3089185.0,
5559,3080584.0,
5560,3081970.0,
5561,3078479.0,
5562,3070357.0,
5563,3042765.0,
5564,3018774.0,
5565,3010282.0,
5566,2987139.0,
5567,2963881.0,
5568,2993306.0,
5569,2969568.0,
5570,2967959.0,
5571,2967299.0,
5572,2948085.0,
5573,2934487.0,
5574,2923487.0,
5575,2921636.0,
5576,2914528.0,
5577,2912881.0,
5578,2933693.0,
5579,2945788.0,
5580,2949647.0,
5581,2949469.0,
5582,2949554.0,
5583,2954628.0,
5584,2945209.0,
5585,2930648.0,
5586,2915623.0,
5587,2893020.0,
5588,2869357.0,
5589,2824365.0,
5590,2803152.0,
5591,2770138.0,
5592,2771973.0,
5593,2753341.0,
5594,2790636.0,
5595,2820652.0,
5596,2852720.0,
5597,2873063.0,
5598,2867345.0,
5599,2879720.0,
5600,2879926.0,
5601,2883003.0,
5602,2830281.0,
5603,2858909.0,
5604,2830996.0,
5605,2871249.0,
5606,2888668.0,
5607,2860899.0,
5608,2859033.0,
5609,2840861.0,
5610,2827122.0,
5611,2823847.0,
5612,2908877.0,
5613,3035008.0,
5614,3135929.0,
5615,3169211.0,
5616,3169087.0,
5617,3170400.0,
5618,3234230.0,
5619,3316624.0,
5620,3330709.0,
5621,3335600.0,
5622,3369543.0,
5623,3424434.0,
5624,3462742.0,
5625,3487435.0,
5626,3514033.0,
5627,3535877.0,
5628,3555781.0,
5629,3559530.0,
5630,3516463.0,
5631,3547618.0,
5632,3572529.0,
5633,3591566.0,
5634,3626973.0,
5635,3642349.0,
5636,3645659.0,
5637,3646547.0,
5638,3652780.0,
5639,3650711.0,
5640,3648781.0,
5641,3652087.0,
5642,3652311.0,
5643,3652161.0,
5644,3648660.0,
5645,3642734.0,
5646,3640843.0,
5647,3642247.0,
5648,3642596.0,
5649,3644874.0,
5650,3653130.0,
5651,3656482.0,
5652,3658684.0,
5653,3658719.0,
5654,3660945.0,
5655,3663639.0,
5656,3663309.0,
5657,3654541.0,
5658,3646222.0,
5659,3640091.0,
5660,3642484.0,
5661,3644583.0,
5662,3643840.0,
5663,3644889.0,
5664,3642090.0,
5665,3638751.0,
5666,3616304.0,
5667,3583466.0,
5668,3567646.0,
5669,3553941.0,
5670,3536105.0,
5671,3524761.0,
5672,3506934.0,
5673,3484879.0,
5674,3447905.0,
5675,3399387.0,
5676,3391869.0,
5677,3394178.0,
5678,3415750.0,
5679,3422652.0,
5680,3404065.0,
5681,3393885.0,
5682,3398277.0,
5683,3408633.0,
5684,3409861.0,
5685,3422574.0,
5686,3423719.0,
5687,3398630.0,
5688,3360537.0,
5689,3395431.0,
5690,3473537.0,
5691,3516730.0,
5692,4097019.0,
5693,4194788.0,
5694,4194756.0,
5695,3853023.0,
5696,3651404.0,
5697,3591941.0,
5698,3570911.0,
5699,3523206.0,
5700,3386120.0,
5701,3398935.0,
5702,3260253.0,
5703,3253619.0,
5704,3277903.0,
5705,3241107.0,
5706,3209692.0,
5707,3169432.0,
5708,3137810.0,
5709,3137498.0,
5710,3136268.0,
5711,3101665.0,
5712,3150259.0,
5713,3118473.0,
5714,3131975.0,
5715,3167902.0,
5716,3155313.0,
5717,3155897.0,
5718,3152750.0,
5719,3185151.0,
5720,3129678.0,
5721,3078301.0,
5722,3187872.0,
5723,3125718.0,
5724,3119710.0,
5725,3096973.0,
5726,3048481.0,
5727,3039704.0,
5728,3034395.0,
5729,3030047.0,
5730,3022803.0,
5731,3021164.0,
5732,3051841.0,
5733,3054274.0,
5734,3061721.0,
5735,3104116.0,
5736,3121432.0,
5737,3164738.0,
5738,3176556.0,
5739,3179350.0,
5740,3185564.0,
5741,3191557.0,
5742,3186383.0,
5743,3173085.0,
5744,3150982.0,
5745,3160105.0,
5746,3154345.0,
5747,3151512.0,
5748,3153204.0,
5749,3142172.0,
5750,3108877.0,
5751,3072178.0,
5752,3048260.0,
5753,3061707.0,
5754,3070467.0,
5755,3051109.0,
5756,3041208.0,
5757,3046977.0,
5758,3046048.0,
5759,3010478.0,
5760,2980785.0,
5761,2980980.0,
5762,2990438.0,
5763,2993800.0,
5764,2988038.0,
5765,2987866.0,
5766,2986627.0,
5767,2986263.0,
5768,2980850.0,
5769,2986932.0,
5770,2971759.0,
5771,2950605.0,
5772,2941957.0,
5773,2940856.0,
5774,2930535.0,
5775,2917322.0,
5776,2919072.0,
5777,2913879.0,
5778,2907628.0,
5779,2904177.0,
5780,2894494.0,
5781,2886480.0,
5782,2875607.0,
5783,2860746.0,
5784,2850776.0,
5785,2840538.0,
5786,2833131.0,
5787,2826126.0,
5788,2824587.0,
5789,2816919.0,
5790,2813538.0,
5791,2816459.0,
5792,2817937.0,
5793,2812459.0,
5794,2810455.0,
5795,2808929.0,
5796,2809135.0,
5797,2804472.0,
5798,2798282.0,
5799,2792675.0,
5800,2791220.0,
5801,2787782.0,
5802,2779662.0,
5803,2777311.0,
5804,2776765.0,
5805,2781481.0,
5806,2786690.0,
5807,2794890.0,
5808,2799208.0,
5809,2802381.0,
5810,2805607.0,
5811,2807646.0,
5812,2810681.0,
5813,2809755.0,
5814,2813110.0,
5815,2818083.0,
5816,2822543.0,
5817,2828296.0,
5818,2832255.0,
5819,2834101.0,
5820,2832541.0,
5821,2844883.0,
5822,2860180.0,
5823,2863364.0,
5824,2848912.0,
5825,2836746.0,
5826,2834121.0,
5827,2841276.0,
5828,2847522.0,
5829,2857051.0,
5830,2858480.0,
5831,2855127.0,
5832,2853989.0,
5833,2879496.0,
5834,2899322.0,
5835,2907580.0,
5836,2907129.0,
5837,2909874.0,
5838,2919299.0,
5839,2918278.0,
5840,2886090.0,
5841,2874830.0,
5842,2881891.0,
5843,2902377.0,
5844,2896903.0,
5845,2916034.0,
5846,2930072.0,
5847,2912533.0,
5848,2890425.0,
5849,2884524.0,
5850,2883277.0,
5851,2890946.0,
5852,2902934.0,
5853,2912615.0,
5854,2925636.0,
5855,2930985.0,
5856,2940269.0,
5857,2937124.0,
5858,2939015.0,
5859,2930475.0,
5860,2925846.0,
5861,2929749.0,
5862,2927625.0,
5863,2930498.0,
5864,2933388.0,
5865,2938102.0,
5866,2961097.0,
5867,2977478.0,
5868,2989250.0,
5869,2985861.0,
5870,2986630.0,
5871,3004745.0,
5872,3006658.0,
5873,3013965.0,
5874,3025675.0,
5875,3026065.0,
5876,3028645.0,
5877,3034232.0,
5878,3032386.0,
5879,3025087.0,
5880,3011338.0,
5881,3012989.0,
5882,3033779.0,
5883,3020950.0,
5884,2996147.0,
5885,2985774.0,
5886,3017048.0,
5887,2999026.0,
5888,2988546.0,
5889,2973823.0,
5890,2970424.0,
5891,2972349.0,
5892,2983958.0,
5893,2994551.0,
5894,3003231.0,
5895,3006560.0,
5896,2995006.0,
5897,2992386.0,
5898,2973156.0,
5899,2959929.0,
5900,2958374.0,
5901,2952450.0,
5902,2944433.0,
5903,2939762.0,
5904,2925658.0,
5905,2913187.0,
5906,2909993.0,
5907,2899679.0,
5908,2900318.0,
5909,2909474.0,
5910,2928978.0,
5911,2927160.0,
5912,2921679.0,
5913,2917129.0,
5914,2916516.0,
5915,2913056.0,
5916,2913056.0,
5917,2902896.0,
5918,2899946.0,
5919,2885956.0,
5920,2863124.0,
5921,2863124.0,
5922,2881712.0,
5923,2883297.0,
5924,2850682.0,
5925,2850967.0,
5926,2837583.0,
5927,2829785.0,
5928,2833385.0,
5929,2827205.0,
5930,2822968.0,
5931,2830452.0,
5932,2820775.0,
5933,2783466.0,
5934,2769021.0,
5935,2778886.0,
5936,2774490.0,
5937,2760506.0,
5938,2744470.0,
5939,2743279.0,
5940,2735861.0,
5941,2729283.0,
5942,2727657.0,
5943,2719869.0,
5944,2727708.0,
5945,2728937.0,
5946,2733392.0,
5947,2736205.0,
5948,2739686.0,
5949,2724541.0,
5950,2721656.0,
5951,2734039.0,
5952,2735743.0,
5953,2749576.0,
5954,2765065.0,
5955,2762587.0,
5956,2765166.0,
5957,2766821.0,
5958,2753779.0,
5959,2747038.0,
5960,2746773.0,
5961,2735762.0,
5962,2715562.0,
5963,2693011.0,
5964,2655038.0,
5965,2642960.0,
5966,2642211.0,
5967,2655368.0,
5968,2670896.0,
5969,2599676.0,
5970,2583617.0,
5971,2624633.0,
5972,2619208.0,
5973,2607411.0,
5974,2565325.0,
5975,2549835.0,
5976,2563008.0,
5977,2548575.0,
5978,2541329.0,
5979,2534576.0,
5980,2530871.0,
5981,2532924.0,
5982,2525929.0,
5983,2510340.0,
5984,2490086.0,
5985,2483735.0,
5986,2466639.0,
5987,2458504.0,
5988,2442036.0,
5989,2425966.0,
5990,2411399.0,
5991,2410034.0,
5992,2427497.0,
5993,2437593.0,
5994,2441825.0,
5995,2439567.0,
5996,2443330.0,
5997,2424780.0,
5998,2439789.0,
5999,2453938.0,
6000,2460950.0,
6001,2468339.0,
6002,2463457.0,
6003,2466522.0,
6004,2470841.0,
6005,2473146.0,
6006,2477668.0,
6007,2480008.0,
6008,2483193.0,
6009,2483342.0,
6010,2503180.0,
6011,2501412.0,
6012,2492332.0,
6013,2482710.0,
6014,2480168.0,
6015,2470133.0,
6016,2455197.0,
6017,2452248.0,
6018,2448051.0,
6019,2442685.0,
6020,2437076.0,
6021,2436401.0,
6022,2435304.0,
6023,2432305.0,
6024,2433397.0,
6025,2416202.0,
6026,2414301.0,
6027,2408056.0,
6028,2424380.0,
6029,2444212.0,
6030,2459311.0,
6031,2482903.0,
6032,2491938.0,
6033,2489122.0,
6034,2491573.0,
6035,2496116.0,
6036,2499327.0,
6037,2506095.0,
6038,2510978.0,
6039,2526664.0,
6040,2561092.0,
6041,2620851.0,
6042,2676419.0,
6043,2751270.0,
6044,2790101.0,
6045,2767473.0,
6046,2696436.0,
6047,2669673.0,
6048,2630461.0,
6049,2598707.0,
6050,2580568.0,
6051,2574105.0,
6052,2570401.0,
6053,2570190.0,
6054,2570636.0,
6055,2569862.0,
6056,2573587.0,
6057,2574540.0,
6058,2575332.0,
6059,2577549.0,
6060,2577206.0,
6061,2580802.0,
6062,2580611.0,
6063,2581645.0,
6064,2575414.0,
6065,2570965.0,
6066,2570067.0,
6067,2571564.0,
6068,2572310.0,
6069,2571698.0,
6070,2570549.0,
6071,2570706.0,
6072,2571269.0,
6073,2567020.0,
6074,2560016.0,
6075,2554040.0,
6076,2544014.0,
6077,2539695.0,
6078,2537401.0,
6079,2537026.0,
6080,2536143.0,
6081,2535370.0,
6082,2534217.0,
6083,2532857.0,
6084,2532902.0,
6085,2533165.0,
6086,2535061.0,
6087,2535594.0,
6088,2538028.0,
6089,2539596.0,
6090,2543072.0,
6091,2542569.0,
6092,2541937.0,
6093,2540579.0,
6094,2536323.0,
6095,2536491.0,
6096,2537513.0,
6097,2539233.0,
6098,2541487.0,
6099,2543003.0,
6100,2542928.0,
6101,2544904.0,
6102,2548155.0,
6103,2548482.0,
6104,2551362.0,
6105,2555508.0,
6106,2558362.0,
6107,2560906.0,
6108,2560129.0,
6109,2558147.0,
6110,2552659.0,
6111,2551938.0,
6112,2550940.0,
6113,2552043.0,
6114,2551474.0,
6115,2552142.0,
6116,2554026.0,
6117,2554666.0,
6118,2558262.0,
6119,2559997.0,
6120,2563983.0,
6121,2570886.0,
6122,2573915.0,
6123,2577756.0,
6124,2582519.0,
6125,2581499.0,
6126,2581531.0,
6127,2581374.0,
6128,2582850.0,
6129,2576796.0,
6130,2580565.0,
6131,2588151.0,
6132,2595633.0,
6133,2592511.0,
6134,2585072.0,
6135,2584742.0,
6136,2593713.0,
6137,2609416.0,
6138,2620080.0,
6139,2629967.0,
6140,2646953.0,
6141,2663839.0,
6142,2673629.0,
6143,2669700.0,
6144,2667755.0,
6145,2694264.0,
6146,2687053.0,
6147,2687195.0,
6148,2693303.0,
6149,2705058.0,
6150,2709950.0,
6151,2716861.0,
6152,2717217.0,
6153,2719029.0,
6154,2723536.0,
6155,2729046.0,
6156,2730869.0,
6157,2734048.0,
6158,2737686.0,
6159,2747094.0,
6160,2750882.0,
6161,2756759.0,
6162,2764362.0,
6163,2763388.0,
6164,2764296.0,
6165,2767053.0,
6166,2762903.0,
6167,2767866.0,
6168,2778343.0,
6169,2794588.0,
6170,2811570.0,
6171,2828155.0,
6172,2839744.0,
6173,2845958.0,
6174,2844972.0,
6175,2843116.0,
6176,2841870.0,
6177,2841285.0,
6178,2837885.0,
6179,2837978.0,
6180,2839303.0,
6181,2836742.0,
6182,2830483.0,
6183,2827940.0,
6184,2826528.0,
6185,2821873.0,
6186,2818709.0,
6187,2817365.0,
6188,2817230.0,
6189,2814849.0,
6190,2812717.0,
6191,2801503.0,
6192,2793183.0,
6193,2788118.0,
6194,2787531.0,
6195,2783348.0,
6196,2777001.0,
6197,2779547.0,
6198,2775584.0,
6199,2778750.0,
6200,2788229.0,
6201,2802626.0,
6202,2812719.0,
6203,2837465.0,
6204,2858615.0,
6205,2907716.0,
6206,2966003.0,
6207,2974063.0,
6208,3028645.0,
6209,3065984.0,
6210,3075103.0,
6211,3096824.0,
6212,3119514.0,
6213,3109719.0,
6214,3121976.0,
6215,3123240.0,
6216,3105566.0,
6217,3043146.0,
6218,2974923.0,
6219,2951824.0,
6220,2949895.0,
6221,2947888.0,
6222,2947949.0,
6223,2950024.0,
6224,2954654.0,
6225,2955929.0,
6226,2963407.0,
6227,2964808.0,
6228,2964741.0,
6229,2968102.0,
6230,2973295.0,
6231,2975880.0,
6232,2978790.0,
6233,2983794.0,
6234,2983152.0,
6235,2980986.0,
6236,2978866.0,
6237,2976991.0,
6238,2977646.0,
6239,2976210.0,
6240,2979773.0,
6241,2980689.0,
6242,2981147.0,
6243,2981681.0,
6244,2983327.0,
6245,2986342.0,
6246,2989706.0,
6247,2993609.0,
6248,2995008.0,
6249,2997371.0,
6250,2996919.0,
6251,2997918.0,
6252,2996123.0,
6253,2997233.0,
6254,2997171.0,
6255,2997893.0,
6256,2998142.0,
6257,3000997.0,
6258,3005143.0,
6259,3014664.0,
6260,3138455.0,
6261,3206460.0,
6262,3237013.0,
6263,3270222.0,
6264,3285743.0,
6265,3305587.0,
6266,3315902.0,
6267,3303266.0,
6268,3264108.0,
6269,3221944.0,
6270,3178763.0,
6271,3147453.0,
6272,3134180.0,
6273,3118715.0,
6274,3114454.0,
6275,3113064.0,
6276,3108666.0,
6277,3104464.0,
6278,3090261.0,
6279,3081779.0,
6280,3071865.0,
6281,3059308.0,
6282,3073799.0,
6283,3092798.0,
6284,3155489.0,
6285,3190004.0,
6286,3226529.0,
6287,3292947.0,
6288,3330871.0,
6289,3338539.0,
6290,3346514.0,
6291,3357404.0,
6292,3357815.0,
6293,3332734.0,
6294,3369114.0,
6295,3368489.0,
6296,3353749.0,
6297,3357508.0,
6298,3355181.0,
6299,3319845.0,
6300,3300000.0,
6301,3260911.0,
6302,3187240.0,
6303,3138851.0,
6304,3114730.0,
6305,3083690.0,
6306,3066841.0,
6307,3057169.0,
6308,3047318.0,
6309,3036495.0,
6310,3029770.0,
6311,3028485.0,
6312,3022761.0,
6313,3019059.0,
6314,3011943.0,
6315,2999890.0,
6316,2984644.0,
6317,2971177.0,
6318,2959116.0,
6319,2948297.0,
6320,2942322.0,
6321,2934841.0,
6322,2929931.0,
6323,2921125.0,
6324,2914266.0,
6325,2906703.0,
6326,2896338.0,
6327,2889549.0,
6328,2882233.0,
6329,2877840.0,
6330,2868870.0,
6331,2855021.0,
6332,2842981.0,
6333,2832798.0,
6334,2825789.0,
6335,2819024.0,
6336,2814934.0,
6337,2812396.0,
6338,2806136.0,
6339,2802426.0,
6340,2798855.0,
6341,2793462.0,
6342,2792156.0,
6343,2788644.0,
6344,2782939.0,
6345,2774422.0,
6346,2764256.0,
6347,2754199.0,
6348,2749481.0,
6349,2744596.0,
6350,2741801.0,
6351,2739942.0,
6352,2735340.0,
6353,2732534.0,
6354,2729020.0,
6355,2727010.0,
6356,2722037.0,
6357,2720012.0,
6358,2717452.0,
6359,2712652.0,
6360,2702145.0,
6361,2691399.0,
6362,2682856.0,
6363,2673991.0,
6364,2669119.0,
6365,2665711.0,
6366,2662160.0,
6367,2664711.0,
6368,2668404.0,
6369,2670002.0,
6370,2672693.0,
6371,2671169.0,
6372,2664939.0,
6373,2656823.0,
6374,2645592.0,
6375,2628765.0,
6376,2613794.0,
6377,2599005.0,
6378,2590720.0,
6379,2584466.0,
6380,2575242.0,
6381,2573684.0,
6382,2568436.0,
6383,2567368.0,
6384,2566450.0,
6385,2562399.0,
6386,2561333.0,
6387,2566638.0,
6388,2571508.0,
6389,2570289.0,
6390,2571906.0,
6391,2569904.0,
6392,2572318.0,
6393,2576021.0,
6394,2576983.0,
6395,2581838.0,
6396,2587490.0,
6397,2593310.0,
6398,2599569.0,
6399,2606352.0,
6400,2616982.0,
6401,2625326.0,
6402,2628814.0,
6403,2629267.0,
6404,2635927.0,
6405,2641643.0,
6406,2653264.0,
6407,2663564.0,
6408,2670856.0,
6409,2677426.0,
6410,2680212.0,
6411,2678770.0,
6412,2677817.0,
6413,2683330.0,
6414,2683491.0,
6415,2683866.0,
6416,2688056.0,
6417,2691380.0,
6418,2696284.0,
6419,2698945.0,
6420,2698241.0,
6421,2699528.0,
6422,2704054.0,
6423,2709521.0,
6424,2710962.0,
6425,2715649.0,
6426,2724423.0,
6427,2731545.0,
6428,2743034.0,
6429,2749652.0,
6430,2751713.0,
6431,2747584.0,
6432,2742881.0,
6433,2743384.0,
6434,2745035.0,
6435,2747810.0,
6436,2755828.0,
6437,2763552.0,
6438,2753848.0,
6439,2739611.0,
6440,2734622.0,
6441,2735074.0,
6442,2722049.0,
6443,2694122.0,
6444,2659478.0,
6445,2646564.0,
6446,2639823.0,
6447,2668975.0,
6448,2823655.0,
6449,2940129.0,
6450,3031215.0,
6451,3093394.0,
6452,3147545.0,
6453,3191337.0,
6454,3221176.0,
6455,3248137.0,
6456,3245200.0,
6457,3232900.0,
6458,3180028.0,
6459,3012913.0,
6460,2930234.0,
6461,2916485.0,
6462,2918913.0,
6463,2915884.0,
6464,2896254.0,
6465,2864094.0,
6466,2846008.0,
6467,2831754.0,
6468,2821911.0,
6469,2814195.0,
6470,2806112.0,
6471,2802918.0,
6472,2798738.0,
6473,2793498.0,
6474,2790836.0,
6475,2806879.0,
6476,2827060.0,
6477,2839137.0,
6478,2839364.0,
6479,2833879.0,
6480,2832837.0,
6481,2823384.0,
6482,2808349.0,
6483,2792765.0,
6484,2782195.0,
6485,2780163.0,
6486,2785104.0,
6487,2788685.0,
6488,2787347.0,
6489,2785922.0,
6490,2778260.0,
6491,2775494.0,
6492,2765827.0,
6493,2758669.0,
6494,2752541.0,
6495,2746961.0,
6496,2740118.0,
6497,2740975.0,
6498,2725881.0,
6499,2700140.0,
6500,2680029.0,
6501,2662747.0,
6502,2658121.0,
6503,2656794.0,
6504,2662240.0,
6505,2666011.0,
6506,2673017.0,
6507,2681786.0,
6508,2690087.0,
6509,2688004.0,
6510,2684010.0,
6511,2675322.0,
6512,2664489.0,
6513,2663075.0,
6514,2667735.0,
6515,2665704.0,
6516,2662784.0,
6517,2661043.0,
6518,2659653.0,
6519,2659982.0,
6520,2659897.0,
6521,2665331.0,
6522,2671997.0,
6523,2675226.0,
6524,2670731.0,
6525,2667860.0,
6526,2661600.0,
6527,2648752.0,
6528,2637088.0,
6529,2628279.0,
6530,2616094.0,
6531,2611738.0,
6532,2612926.0,
6533,2613386.0,
6534,2609860.0,
6535,2616021.0,
6536,2618963.0,
6537,2635270.0,
6538,2651244.0,
6539,2663386.0,
6540,2671559.0,
6541,2678516.0,
6542,2683937.0,
6543,2682156.0,
6544,2676691.0,
6545,2669132.0,
6546,2664403.0,
6547,2667282.0,
6548,2672725.0,
6549,2678531.0,
6550,2684015.0,
6551,2687210.0,
6552,2689410.0,
6553,2690785.0,
6554,2694572.0,
6555,2698467.0,
6556,2697987.0,
6557,2696264.0,
6558,2694313.0,
6559,2691422.0,
6560,2691090.0,
6561,2692506.0,
6562,2695351.0,
6563,2698201.0,
6564,2698864.0,
6565,2700965.0,
6566,2703134.0,
6567,2705814.0,
6568,2710826.0,
6569,2714423.0,
6570,2717457.0,
6571,2718988.0,
6572,2720726.0,
6573,2718821.0,
6574,2713193.0,
6575,2706865.0,
6576,2702506.0,
6577,2700763.0,
6578,2701174.0,
6579,2702007.0,
6580,2703915.0,
6581,2705516.0,
6582,2707474.0,
6583,2709482.0,
6584,2712210.0,
6585,2715976.0,
6586,2719906.0,
6587,2723406.0,
6588,2728120.0,
6589,2733624.0,
6590,2737954.0,
6591,2742499.0,
6592,2745321.0,
6593,2745444.0,
6594,2742139.0,
6595,2739304.0,
6596,2737008.0,
6597,2735897.0,
6598,2739605.0,
6599,2740928.0,
6600,2744800.0,
6601,2745810.0,
6602,2748307.0,
6603,2751240.0,
6604,2754944.0,
6605,2758727.0,
6606,2762602.0,
6607,2766549.0,
6608,2770314.0,
6609,2774262.0,
6610,2776263.0,
6611,2774027.0,
6612,2770788.0,
6613,2770535.0,
6614,2770199.0,
6615,2770848.0,
6616,2771804.0,
6617,2774144.0,
6618,2776138.0,
6619,2778570.0,
6620,2781295.0,
6621,2785466.0,
6622,2788028.0,
6623,2792095.0,
6624,2793654.0,
6625,2797036.0,
6626,2797320.0,
6627,2794313.0,
6628,2791749.0,
6629,2790442.0,
6630,2792038.0,
6631,2791945.0,
6632,2794091.0,
6633,2796600.0,
6634,2799820.0,
6635,2800719.0,
6636,2803745.0,
6637,2806027.0,
6638,2810220.0,
6639,2811659.0,
6640,2815222.0,
6641,2815698.0,
6642,2813129.0,
6643,2809074.0,
6644,2807780.0,
6645,2807908.0,
6646,2810354.0,
6647,2811568.0,
6648,2813094.0,
6649,2813152.0,
6650,2815444.0,
6651,2817375.0,
6652,2819249.0,
6653,2821333.0,
6654,2823925.0,
6655,2827138.0,
6656,2830174.0,
6657,2829431.0,
6658,2827761.0,
6659,2824489.0,
6660,2822044.0,
6661,2822200.0,
6662,2822184.0,
6663,2825539.0,
6664,2826035.0,
6665,2827708.0,
6666,2830078.0,
6667,2832593.0,
6668,2834810.0,
6669,2837901.0,
6670,2841126.0,
6671,2842055.0,
6672,2844701.0,
6673,2849008.0,
6674,2849976.0,
6675,2849698.0,
6676,2845004.0,
6677,2844527.0,
6678,2843354.0,
6679,2844621.0,
6680,2844648.0,
6681,2846656.0,
6682,2848787.0,
6683,2850764.0,
6684,2853143.0,
6685,2856752.0,
6686,2858040.0,
6687,2860036.0,
6688,2863576.0,
6689,2867239.0,
6690,2871233.0,
6691,2874922.0,
6692,2878177.0,
6693,2878143.0,
6694,2875755.0,
6695,2873594.0,
6696,2873080.0,
6697,2874395.0,
6698,2877215.0,
6699,2880448.0,
6700,2881251.0,
6701,2883431.0,
6702,2885373.0,
6703,2887986.0,
6704,2890888.0,
6705,2894673.0,
6706,2895720.0,
6707,2898909.0,
6708,2902662.0,
6709,2906060.0,
6710,2909835.0,
6711,2914179.0,
6712,2913495.0,
6713,2911768.0,
6714,2910652.0,
6715,2909164.0,
6716,2911257.0,
6717,2913291.0,
6718,2915367.0,
6719,2918677.0,
6720,2919027.0,
6721,2923330.0,
6722,2925833.0,
6723,2928353.0,
6724,2929462.0,
6725,2932523.0,
6726,2934931.0,
6727,2938136.0,
6728,2940258.0,
6729,2940187.0,
6730,2936613.0,
6731,2937940.0,
6732,2937115.0,
6733,2939096.0,
6734,2941424.0,
6735,2942403.0,
6736,2932870.0,
6737,2902351.0,
6738,2864944.0,
6739,2821740.0,
6740,2810080.0,
6741,2805998.0,
6742,2806287.0,
6743,2802365.0,
6744,2800959.0,
6745,2799016.0,
6746,2801440.0,
6747,2815148.0,
6748,2839868.0,
6749,2872441.0,
6750,2917740.0,
6751,2941468.0,
6752,2945771.0,
6753,2941582.0,
6754,2940795.0,
6755,2950050.0,
6756,2958476.0,
6757,2961566.0,
6758,2960426.0,
6759,2955756.0,
6760,2954825.0,
6761,2954570.0,
6762,2953940.0,
6763,2954402.0,
6764,2954726.0,
6765,2955570.0,
6766,2957448.0,
6767,2958473.0,
6768,2958159.0,
6769,2960748.0,
6770,2961723.0,
6771,2961683.0,
6772,2957134.0,
6773,2952163.0,
6774,2949209.0,
6775,2947663.0,
6776,2948348.0,
6777,2946544.0,
6778,2946908.0,
6779,2947510.0,
6780,2947295.0,
6781,2950299.0,
6782,2950288.0,
6783,2952307.0,
6784,2954776.0,
6785,2958105.0,
6786,2963998.0,
6787,2967542.0,
6788,2967707.0,
6789,2964145.0,
6790,2962101.0,
6791,2961027.0,
6792,2960455.0,
6793,2960263.0,
6794,2961627.0,
6795,2960536.0,
6796,2960694.0,
6797,2960401.0,
6798,2960502.0,
6799,2961185.0,
6800,2962438.0,
6801,2963706.0,
6802,2965520.0,
6803,2967165.0,
6804,2969665.0,
6805,2971349.0,
6806,2973562.0,
6807,2974227.0,
6808,2970102.0,
6809,2966443.0,
6810,2964345.0,
6811,2962664.0,
6812,2962625.0,
6813,2963311.0,
6814,2964153.0,
6815,2964410.0,
6816,2964474.0,
6817,2965102.0,
6818,2966207.0,
6819,2967609.0,
6820,2968433.0,
6821,2970136.0,
6822,2971922.0,
6823,2973660.0,
6824,2975176.0,
6825,2978412.0,
6826,2979917.0,
6827,2977426.0,
6828,2973381.0,
6829,2969183.0,
6830,2967474.0,
6831,2966690.0,
6832,2966316.0,
6833,2966693.0,
6834,2966842.0,
6835,2967272.0,
6836,2968009.0,
6837,2968706.0,
6838,2969520.0,
6839,2971263.0,
6840,2974617.0,
6841,2976205.0,
6842,2977597.0,
6843,2979452.0,
6844,2981035.0,
6845,2978574.0,
6846,2973794.0,
6847,2970885.0,
6848,2969504.0,
6849,2968852.0,
6850,2968754.0,
6851,2969472.0,
6852,2970040.0,
6853,2970462.0,
6854,2972978.0,
6855,2972724.0,
6856,2974038.0,
6857,2976044.0,
6858,2978169.0,
6859,2980416.0,
6860,2981871.0,
6861,2983143.0,
6862,2985859.0,
6863,2987814.0,
6864,2986792.0,
6865,2983891.0,
6866,2981025.0,
6867,2980459.0,
6868,2979600.0,
6869,2979335.0,
6870,2980068.0,
6871,2981240.0,
6872,2981980.0,
6873,2980786.0,
6874,2981525.0,
6875,2983341.0,
6876,2985031.0,
6877,2987061.0,
6878,2989037.0,
6879,2991109.0,
6880,2993010.0,
6881,2996840.0,
6882,2999261.0,
6883,3000053.0,
6884,2999895.0,
6885,2997601.0,
6886,2994752.0,
6887,2994324.0,
6888,2992960.0,
6889,2993384.0,
6890,2993956.0,
6891,2995167.0,
6892,2995954.0,
6893,2996753.0,
6894,2996246.0,
6895,2997670.0,
6896,2999342.0,
6897,3001320.0,
6898,3004197.0,
6899,3006294.0,
6900,3010191.0,
6901,3011175.0,
6902,3013842.0,
6903,3016095.0,
6904,3018633.0,
6905,3021512.0,
6906,3022113.0,
6907,3021930.0,
6908,3017643.0,
6909,3015997.0,
6910,3015397.0,
6911,3015727.0,
6912,3019543.0,
6913,3018890.0,
6914,3021095.0,
6915,3020256.0,
6916,3022185.0,
6917,3024323.0,
6918,3023783.0,
6919,3027117.0,
6920,3027458.0,
6921,3030487.0,
6922,3030540.0,
6923,3033236.0,
6924,3035676.0,
6925,3036559.0,
6926,3038157.0,
6927,3040565.0,
6928,3041999.0,
6929,3041264.0,
6930,3039699.0,
6931,3033514.0,
6932,3033698.0,
6933,3031790.0,
6934,3031470.0,
6935,3031773.0,
6936,3032096.0,
6937,3032406.0,
6938,3032665.0,
6939,3033228.0,
6940,3034018.0,
6941,3035025.0,
6942,3036548.0,
6943,3038088.0,
6944,3040454.0,
6945,3041992.0,
6946,3043934.0,
6947,3045655.0,
6948,3045286.0,
6949,3048846.0,
6950,3049535.0,
6951,3047823.0,
6952,3044447.0,
6953,3041828.0,
6954,3040080.0,
6955,3038732.0,
6956,3038216.0,
6957,3038198.0,
6958,3038291.0,
6959,3037981.0,
6960,3037527.0,
6961,3035911.0,
6962,3036548.0,
6963,3037017.0,
6964,3038177.0,
6965,3039498.0,
6966,3040837.0,
6967,3042540.0,
6968,3042881.0,
6969,3043990.0,
6970,3045958.0,
6971,3046142.0,
6972,3043416.0,
6973,3039519.0,
6974,3037654.0,
6975,3035129.0,
6976,3032233.0,
6977,3030186.0,
6978,3029635.0,
6979,3029285.0,
6980,3028824.0,
6981,3030236.0,
6982,3030398.0,
6983,3030728.0,
6984,3031173.0,
6985,3032086.0,
6986,3032781.0,
6987,3034143.0,
6988,3033573.0,
6989,3034704.0,
6990,3036106.0,
6991,3037411.0,
6992,3037772.0,
6993,3035138.0,
6994,3031530.0,
6995,3027159.0,
6996,3023621.0,
6997,3020380.0,
6998,3018304.0,
6999,3017587.0,
7000,3016844.0,
7001,3015821.0,
7002,3014769.0,
7003,3014306.0,
7004,3014083.0,
7005,3014106.0,
7006,3014326.0,
7007,3014981.0,
7008,3015648.0,
7009,3016593.0,
7010,3017055.0,
7011,3017846.0,
7012,3019049.0,
7013,3017787.0,
7014,3013363.0,
7015,3008067.0,
7016,3005297.0,
7017,3001114.0,
7018,2998639.0,
7019,2996118.0,
7020,2994709.0,
7021,2992438.0,
7022,2990412.0,
7023,2988936.0,
7024,2987823.0,
7025,2986925.0,
7026,2986100.0,
7027,2985616.0,
7028,2985601.0,
7029,2985172.0,
7030,2985416.0,
7031,2987054.0,
7032,2981341.0,
7033,2976557.0,
7034,2970498.0,
7035,2965099.0,
7036,2960971.0,
7037,2957841.0,
7038,2955815.0,
7039,2952168.0,
7040,2949900.0,
7041,2947434.0,
7042,2945713.0,
7043,2945860.0,
7044,2944302.0,
7045,2944765.0,
7046,2944571.0,
7047,2944642.0,
7048,2944748.0,
7049,2943629.0,
7050,2941823.0,
7051,2935928.0,
7052,2928808.0,
7053,2924017.0,
7054,2917031.0,
7055,2912588.0,
7056,2909823.0,
7057,2907820.0,
7058,2905402.0,
7059,2903134.0,
7060,2901271.0,
7061,2899886.0,
7062,2899136.0,
7063,2900464.0,
7064,2899572.0,
7065,2899806.0,
7066,2898768.0,
7067,2900571.0,
7068,2899885.0,
7069,2900697.0,
7070,2901338.0,
7071,2898032.0,
7072,2891241.0,
7073,2884230.0,
7074,2879109.0,
7075,2874820.0,
7076,2869237.0,
7077,2866375.0,
7078,2864888.0,
7079,2862484.0,
7080,2860699.0,
7081,2859458.0,
7082,2858736.0,
7083,2858058.0,
7084,2858123.0,
7085,2859839.0,
7086,2861361.0,
7087,2860833.0,
7088,2861778.0,
7089,2863635.0,
7090,2865301.0,
7091,2866762.0,
7092,2868887.0,
7093,2872283.0,
7094,2869876.0,
7095,2862112.0,
7096,2856823.0,
7097,2853631.0,
7098,2848792.0,
7099,2846532.0,
7100,2845327.0,
7101,2844268.0,
7102,2844421.0,
7103,2842286.0,
7104,2843357.0,
7105,2844058.0,
7106,2844593.0,
7107,2843945.0,
7108,2844982.0,
7109,2846444.0,
7110,2848374.0,
7111,2850117.0,
7112,2852182.0,
7113,2855383.0,
7114,2857683.0,
7115,2858567.0,
7116,2860716.0,
7117,2859477.0,
7118,2854843.0,
7119,2849822.0,
7120,2848023.0,
7121,2844837.0,
7122,2844954.0,
7123,2842996.0,
7124,2843148.0,
7125,2843228.0,
7126,2842879.0,
7127,2843133.0,
7128,2844188.0,
7129,2846938.0,
7130,2847161.0,
7131,2848740.0,
7132,2850895.0,
7133,2853246.0,
7134,2855676.0,
7135,2858304.0,
7136,2861857.0,
7137,2865227.0,
7138,2870527.0,
7139,2872714.0,
7140,2868039.0,
7141,2862592.0,
7142,2861087.0,
7143,2857462.0,
7144,2855650.0,
7145,2853613.0,
7146,2850229.0,
7147,2851593.0,
7148,2851029.0,
7149,2847988.0,
7150,2847675.0,
7151,2851486.0,
7152,2854872.0,
7153,2857596.0,
7154,2857071.0,
7155,2859886.0,
7156,2864143.0,
7157,2868223.0,
7158,2872806.0,
7159,2876166.0,
7160,2878192.0,
7161,2881906.0,
7162,2884428.0,
7163,2884758.0,
7164,2883453.0,
7165,2879963.0,
7166,2878783.0,
7167,2874656.0,
7168,2873431.0,
7169,2873047.0,
7170,2873080.0,
7171,2873098.0,
7172,2873323.0,
7173,2874511.0,
7174,2873933.0,
7175,2875180.0,
7176,2876820.0,
7177,2880573.0,
7178,2881327.0,
7179,2883197.0,
7180,2885085.0,
7181,2887712.0,
7182,2891958.0,
7183,2893485.0,
7184,2898293.0,
7185,2900268.0,
7186,2902756.0,
7187,2905833.0,
7188,2906638.0,
7189,2906206.0,
7190,2898997.0,
7191,2893039.0,
7192,2888094.0,
7193,2884878.0,
7194,2882734.0,
7195,2871698.0,
7196,2861459.0,
7197,2850774.0,
7198,2843994.0,
7199,2843706.0,
7200,2842041.0,
7201,2847239.0,
7202,2856272.0,
7203,2863684.0,
7204,2869710.0,
7205,2877951.0,
7206,2889954.0,
7207,2893505.0,
7208,2908908.0,
7209,2928335.0,
7210,2952681.0,
7211,2989210.0,
7212,3043781.0,
7213,3097859.0,
7214,3150945.0,
7215,3200707.0,
7216,3229138.0,
7217,3243968.0,
7218,3259767.0,
7219,3274840.0,
7220,3276756.0,
7221,3266413.0,
7222,3256319.0,
7223,3230640.0,
7224,3208658.0,
7225,3195646.0,
7226,3177499.0,
7227,3154085.0,
7228,3131924.0,
7229,3106940.0,
7230,3077103.0,
7231,3049552.0,
7232,3028754.0,
7233,3012740.0,
7234,3002064.0,
7235,2967619.0,
7236,2940725.0,
7237,2929054.0,
7238,2925335.0,
7239,2929023.0,
7240,2927968.0,
7241,2925923.0,
7242,2916075.0,
7243,2908693.0,
7244,2912536.0,
7245,2920520.0,
7246,2911770.0,
7247,2905389.0,
7248,2905393.0,
7249,2915803.0,
7250,2930579.0,
7251,2936123.0,
7252,2906350.0,
7253,2897272.0,
7254,2896729.0,
7255,2900943.0,
7256,2895557.0,
7257,2885519.0,
7258,2876610.0,
7259,2873268.0,
7260,2869361.0,
7261,2868069.0,
7262,2865799.0,
7263,2861478.0,
7264,2857447.0,
7265,2854261.0,
7266,2848221.0,
7267,2841705.0,
7268,2836091.0,
7269,2830214.0,
7270,2825259.0,
7271,2821297.0,
7272,2818315.0,
7273,2816808.0,
7274,2814685.0,
7275,2811949.0,
7276,2811157.0,
7277,2810666.0,
7278,2809944.0,
7279,2803967.0,
7280,2792010.0,
7281,2782891.0,
7282,2803844.0,
7283,2826637.0,
7284,2834980.0,
7285,2870495.0,
7286,2924981.0,
7287,2954314.0,
7288,3013589.0,
7289,3043182.0,
7290,2959132.0,
7291,2930179.0,
7292,2919990.0,
7293,2903382.0,
7294,2886460.0,
7295,2866049.0,
7296,2849696.0,
7297,2838345.0,
7298,2829073.0,
7299,2825568.0,
7300,2823474.0,
7301,2822073.0,
7302,2818114.0,
7303,2812906.0,
7304,2810395.0,
7305,2808400.0,
7306,2806744.0,
7307,2806569.0,
7308,2802601.0,
7309,2793302.0,
7310,2784383.0,
7311,2776856.0,
7312,2770960.0,
7313,2767468.0,
7314,2762794.0,
7315,2760242.0,
7316,2757959.0,
7317,2753549.0,
7318,2751362.0,
7319,2750781.0,
7320,2748849.0,
7321,2746639.0,
7322,2746021.0,
7323,2741576.0,
7324,2734530.0,
7325,2723464.0,
7326,2716183.0,
7327,2710135.0,
7328,2707311.0,
7329,2702502.0,
7330,2699902.0,
7331,2697146.0,
7332,2696077.0,
7333,2693827.0,
7334,2692133.0,
7335,2690201.0,
7336,2688496.0,
7337,2688312.0,
7338,2689279.0,
7339,2688605.0,
7340,2684180.0,
7341,2674651.0,
7342,2666500.0,
7343,2660105.0,
7344,2653470.0,
7345,2650166.0,
7346,2649667.0,
7347,2647091.0,
7348,2643678.0,
7349,2641941.0,
7350,2641751.0,
7351,2641532.0,
7352,2642288.0,
7353,2641087.0,
7354,2641779.0,
7355,2642709.0,
7356,2644812.0,
7357,2645796.0,
7358,2647346.0,
7359,2649056.0,
7360,2650615.0,
7361,2650558.0,
7362,2646557.0,
7363,2640651.0,
7364,2635653.0,
7365,2632156.0,
7366,2628328.0,
7367,2626725.0,
7368,2624609.0,
7369,2622962.0,
7370,2621670.0,
7371,2620865.0,
7372,2621010.0,
7373,2621397.0,
7374,2622617.0,
7375,2624127.0,
7376,2627256.0,
7377,2628448.0,
7378,2630043.0,
7379,2632643.0,
7380,2634598.0,
7381,2636952.0,
7382,2640741.0,
7383,2642373.0,
7384,2640396.0,
7385,2638604.0,
7386,2634650.0,
7387,2633839.0,
7388,2633227.0,
7389,2633145.0,
7390,2632943.0,
7391,2631501.0,
7392,2631741.0,
7393,2631792.0,
7394,2633927.0,
7395,2634904.0,
7396,2635963.0,
7397,2637110.0,
7398,2637794.0,
7399,2639523.0,
7400,2642872.0,
7401,2643768.0,
7402,2646428.0,
7403,2649530.0,
7404,2650724.0,
7405,2650726.0,
7406,2647002.0,
7407,2645846.0,
7408,2645569.0,
7409,2646524.0,
7410,2649628.0,
7411,2651208.0,
7412,2655523.0,
7413,2659522.0,
7414,2662369.0,
7415,2665058.0,
7416,2664371.0,
7417,2663796.0,
7418,2665618.0,
7419,2669292.0,
7420,2674447.0,
7421,2676877.0,
7422,2677972.0,
7423,2680038.0,
7424,2679973.0,
7425,2677071.0,
7426,2676246.0,
7427,2674560.0,
7428,2671274.0,
7429,2672102.0,
7430,2670542.0,
7431,2672413.0,
7432,2670872.0,
7433,2670978.0,
7434,2671549.0,
7435,2672468.0,
7436,2673769.0,
7437,2674896.0,
7438,2675825.0,
7439,2677526.0,
7440,2680529.0,
7441,2678797.0,
7442,2673872.0,
7443,2669822.0,
7444,2666248.0,
7445,2663973.0,
7446,2663222.0,
7447,2663353.0,
7448,2664109.0,
7449,2662619.0,
7450,2660675.0,
7451,2661255.0,
7452,2662730.0,
7453,2661758.0,
7454,2663289.0,
7455,2665221.0,
7456,2665537.0,
7457,2663429.0,
7458,2660583.0,
7459,2654091.0,
7460,2650830.0,
7461,2648610.0,
7462,2647871.0,
7463,2647639.0,
7464,2647450.0,
7465,2647322.0,
7466,2647228.0,
7467,2647603.0,
7468,2648645.0,
7469,2650139.0,
7470,2651282.0,
7471,2652977.0,
7472,2654811.0,
7473,2656449.0,
7474,2655928.0,
7475,2651332.0,
7476,2646353.0,
7477,2642300.0,
7478,2639126.0,
7479,2637532.0,
7480,2638177.0,
7481,2637704.0,
7482,2637244.0,
7483,2634900.0,
7484,2634854.0,
7485,2635672.0,
7486,2638030.0,
7487,2638916.0,
7488,2640007.0,
7489,2639098.0,
7490,2640793.0,
7491,2643150.0,
7492,2643822.0,
7493,2645686.0,
7494,2643887.0,
7495,2638838.0,
7496,2635133.0,
7497,2630548.0,
7498,2628015.0,
7499,2627016.0,
7500,2626410.0,
7501,2625504.0,
7502,2623424.0,
7503,2622415.0,
7504,2622562.0,
7505,2623162.0,
7506,2624520.0,
7507,2626245.0,
7508,2628353.0,
7509,2630406.0,
7510,2634791.0,
7511,2634791.0,
7512,2636537.0,
7513,2638813.0,
7514,2640295.0,
7515,2634911.0,
7516,2634911.0,
7517,2631435.0,
7518,2631031.0,
7519,2630476.0,
7520,2630081.0,
7521,2630326.0,
7522,2630628.0,
7523,2631111.0,
7524,2631764.0,
7525,2633555.0,
7526,2636455.0,
7527,2638266.0,
7528,2639799.0,
7529,2641505.0,
7530,2643752.0,
7531,2643498.0,
7532,2638741.0,
7533,2634354.0,
7534,2630622.0,
7535,2628323.0,
7536,2628669.0,
7537,2628901.0,
7538,2629114.0,
7539,2628923.0,
7540,2627919.0,
7541,2627953.0,
7542,2628674.0,
7543,2630206.0,
7544,2632461.0,
7545,2632259.0,
7546,2634040.0,
7547,2635577.0,
7548,2635485.0,
7549,2630630.0,
7550,2625124.0,
7551,2621110.0,
7552,2618237.0,
7553,2617715.0,
7554,2615644.0,
7555,2614477.0,
7556,2613338.0,
7557,2613288.0,
7558,2610689.0,
7559,2607899.0,
7560,2606577.0,
7561,2607055.0,
7562,2608786.0,
7563,2608738.0,
7564,2610416.0,
7565,2610815.0,
7566,2610548.0,
7567,2612613.0,
7568,2616156.0,
7569,2615964.0,
7570,2611822.0,
7571,2605642.0,
7572,2599717.0,
7573,2596270.0,
7574,2593454.0,
7575,2592267.0,
7576,2591090.0,
7577,2592279.0,
7578,2591672.0,
7579,2595960.0,
7580,2602641.0,
7581,2611769.0,
7582,2619193.0,
7583,2636525.0,
7584,2649984.0,
7585,2654186.0,
