,value,experiments
0,-0.0,
1,-0.0,
2,-0.0,
3,-0.0,
4,-0.0,
5,-0.0,
6,-0.0,
7,-0.0,
8,-0.0,
9,-0.0,
10,0.0,
11,0.01,
12,0.01,
13,-0.0,
14,-0.03,
15,-0.05,
16,-0.05,
17,0.0,
18,0.13,
19,0.36,
20,0.66,
21,1.01,
22,1.37,
23,1.72,
24,2.06,
25,2.4,
26,2.79,
27,3.24,
28,3.8,
29,4.42,
30,5.06,
31,5.67,
32,6.22,
33,6.71,
34,7.21,
35,7.78,
36,8.48,
37,9.42,
38,10.51,
39,11.64,
40,12.71,
41,13.65,
42,14.51,
43,15.46,
44,16.7,
45,18.39,
46,20.74,
47,23.57,
48,26.61,
49,29.57,
50,32.28,
51,34.8,
52,37.46,
53,40.69,
54,44.82,
55,50.24,
56,56.6,
57,63.4,
58,70.04,
59,76.18,
60,81.87,
61,87.6,
62,94.09,
63,101.89,
64,111.57,
65,122.64,
66,134.33,
67,145.75,
68,156.31,
69,166.05,
70,175.56,
71,186.22,
72,196.77,
73,209.53,
74,225.14,
75,243.71,
76,264.06,
77,283.23,
78,296.86,
79,300.25,
80,290.06,
81,265.47,
82,228.95,
83,184.39,
84,136.16,
85,87.48,
86,39.86,
87,-6.53,
88,-51.91,
89,-95.97,
90,-137.84,
91,-176.03,
92,-209.68,
93,-238.24,
94,-261.51,
95,-279.13,
96,-290.52,
97,-295.33,
98,-293.21,
99,-284.31,
100,-269.22,
101,-249.43,
102,-226.76,
103,-203.01,
104,-179.6,
105,-157.37,
106,-136.57,
107,-117.01,
108,-98.39,
109,-80.55,
110,-63.76,
111,-48.5,
112,-35.39,
113,-24.43,
114,-15.53,
115,-8.42,
116,-2.61,
117,2.3,
118,6.66,
119,10.55,
120,13.95,
121,16.76,
122,18.94,
123,20.46,
124,21.39,
125,21.91,
126,22.17,
127,22.3,
128,22.34,
129,22.29,
130,22.12,
131,21.79,
132,21.28,
133,20.53,
134,19.56,
135,18.41,
136,17.11,
137,15.68,
138,14.17,
139,12.6,
140,11.02,
141,9.41,
142,7.78,
143,6.14,
144,4.49,
145,2.85,
146,1.25,
147,-0.27,
148,-1.7,
149,-2.98,
150,-4.09,
151,-5.03,
152,-5.78,
153,-6.33,
154,-6.68,
155,-6.85,
156,-6.86,
157,-6.74,
158,-6.52,
159,-6.25,
160,-5.96,
161,-5.68,
162,-5.44,
163,-5.27,
164,-5.16,
165,-5.12,
166,-5.15,
167,-5.24,
168,-5.38,
169,-5.56,
170,-5.77,
171,-6.0,
172,-6.24,
173,-6.49,
174,-6.74,
175,-6.98,
176,-7.22,
177,-7.45,
178,-7.67,
179,-7.88,
180,-8.08,
181,-8.26,
182,-8.43,
183,-8.6,
184,-8.75,
185,-8.9,
186,-9.03,
187,-9.16,
188,-9.28,
189,-9.41,
190,-9.53,
191,-9.66,
192,-9.8,
193,-9.95,
194,-10.11,
195,-10.27,
196,-10.44,
197,-10.61,
198,-10.78,
199,-10.93,
200,-11.08,
201,-11.21,
202,-11.32,
203,-11.42,
204,-11.49,
205,-11.54,
206,-11.54,
207,-11.48,
208,-11.33,
209,-11.04,
210,-10.58,
211,-9.89,
212,-8.95,
213,-7.7,
214,-6.15,
215,-4.27,
216,-2.1,
217,0.34,
218,2.98,
219,5.76,
220,8.62,
221,11.49,
222,14.29,
223,16.95,
224,19.42,
225,21.66,
226,23.67,
227,25.44,
228,27.04,
229,28.52,
230,29.94,
231,31.29,
232,32.5,
233,33.45,
234,33.92,
235,33.69,
236,32.57,
237,30.39,
238,27.06,
239,22.55,
240,16.89,
241,10.19,
242,2.6,
243,-5.67,
244,-14.31,
245,-22.95,
246,-31.17,
247,-38.54,
248,-44.7,
249,-49.45,
250,-52.8,
251,-54.95,
252,-56.24,
253,-56.98,
254,-57.39,
255,-57.48,
256,-57.14,
257,-56.22,
258,-54.66,
259,-52.65,
260,-50.59,
261,-48.97,
262,-48.19,
263,-48.36,
264,-49.26,
265,-50.36,
266,-51.15,
267,-51.38,
268,-51.19,
269,-51.2,
270,-52.18,
271,-54.75,
272,-59.08,
273,-64.83,
274,-71.26,
275,-77.64,
276,-83.47,
277,-88.82,
278,-94.16,
279,-100.32,
280,-108.3,
281,-119.22,
282,-133.96,
283,-152.7,
284,-174.28,
285,-195.89,
286,-213.46,
287,-222.81,
288,-221.22,
289,-208.47,
290,-186.97,
291,-160.74,
292,-133.87,
293,-109.12,
294,-87.55,
295,-68.92,
296,-52.67,
297,-38.56,
298,-26.78,
299,-17.5,
300,-10.46,
301,-4.82,
302,0.52,
303,6.33,
304,12.77,
305,19.31,
306,25.05,
307,29.19,
308,31.44,
309,32.15,
310,32.1,
311,32.16,
312,32.96,
313,34.6,
314,36.73,
315,38.75,
316,40.12,
317,40.57,
318,40.2,
319,39.35,
320,38.43,
321,37.73,
322,37.36,
323,37.2,
324,37.04,
325,36.67,
326,36.02,
327,35.1,
328,34.01,
329,32.82,
330,31.6,
331,30.4,
332,29.27,
333,28.31,
334,27.62,
335,27.22,
336,27.0,
337,26.7,
338,26.09,
339,25.02,
340,23.56,
341,21.99,
342,20.56,
343,19.43,
344,18.57,
345,17.85,
346,17.15,
347,16.46,
348,15.93,
349,15.7,
350,15.82,
351,16.12,
352,16.35,
353,16.23,
354,15.64,
355,14.73,
356,13.8,
357,13.18,
358,13.04,
359,13.32,
360,13.78,
361,14.14,
362,14.22,
363,14.06,
364,13.83,
365,13.69,
366,13.71,
367,13.76,
368,13.71,
369,13.43,
370,12.97,
371,12.5,
372,12.19,
373,12.11,
374,12.16,
375,12.13,
376,11.82,
377,11.17,
378,10.28,
379,9.38,
380,8.71,
381,8.44,
382,8.59,
383,9.05,
384,9.62,
385,10.07,
386,10.24,
387,10.01,
388,9.44,
389,8.66,
390,7.87,
391,7.25,
392,6.9,
393,6.77,
394,6.74,
395,6.68,
396,6.52,
397,6.3,
398,6.17,
399,6.21,
400,6.45,
401,6.76,
402,6.98,
403,6.92,
404,6.54,
405,5.94,
406,5.29,
407,4.78,
408,4.49,
409,4.39,
410,4.36,
411,4.36,
412,4.45,
413,4.78,
414,5.44,
415,6.34,
416,7.21,
417,7.69,
418,7.58,
419,6.94,
420,6.07,
421,5.32,
422,4.93,
423,4.86,
424,4.94,
425,5.01,
426,5.01,
427,5.05,
428,5.25,
429,5.6,
430,5.96,
431,6.17,
432,6.12,
433,5.83,
434,5.43,
435,5.02,
436,4.67,
437,4.41,
438,4.26,
439,4.24,
440,4.39,
441,4.64,
442,4.86,
443,4.91,
444,4.71,
445,4.34,
446,3.96,
447,3.73,
448,3.73,
449,3.89,
450,4.09,
451,4.2,
452,4.21,
453,4.16,
454,4.12,
455,4.16,
456,4.26,
457,4.37,
458,4.45,
459,4.45,
460,4.38,
461,4.26,
462,4.16,
463,4.05,
464,3.98,
465,3.89,
466,3.78,
467,3.62,
468,3.43,
469,3.25,
470,3.13,
471,3.09,
472,3.1,
473,3.12,
474,3.13,
475,3.1,
476,3.08,
477,3.08,
478,3.15,
479,3.28,
480,3.44,
481,3.62,
482,3.82,
483,3.98,
484,4.06,
485,3.99,
486,3.74,
487,3.32,
488,2.89,
489,2.57,
490,2.45,
491,2.49,
492,2.57,
493,2.6,
494,2.5,
495,2.31,
496,2.07,
497,1.81,
498,1.51,
499,1.15,
500,0.74,
501,0.39,
502,0.25,
503,0.42,
504,0.89,
505,1.51,
506,2.07,
507,2.41,
508,2.5,
509,2.45,
510,2.42,
511,2.47,
512,2.57,
513,2.56,
514,2.32,
515,1.85,
516,1.27,
517,0.8,
518,0.59,
519,0.72,
520,1.07,
521,1.5,
522,1.83,
523,2.02,
524,2.03,
525,1.92,
526,1.72,
527,1.45,
528,1.18,
529,0.98,
530,0.95,
531,1.11,
532,1.44,
533,1.85,
534,2.21,
535,2.46,
536,2.54,
537,2.49,
538,2.36,
539,2.24,
540,2.21,
541,2.34,
542,2.59,
543,2.91,
544,3.16,
545,3.19,
546,2.89,
547,2.25,
548,1.36,
549,0.4,
550,-0.38,
551,-0.81,
552,-0.75,
553,-0.26,
554,0.49,
555,1.23,
556,1.69,
557,1.75,
558,1.45,
559,0.99,
560,0.63,
561,0.57,
562,0.88,
563,1.46,
564,2.12,
565,2.68,
566,2.99,
567,3.05,
568,2.84,
569,2.43,
570,1.86,
571,1.21,
572,0.58,
573,0.15,
574,0.06,
575,0.39,
576,1.08,
577,1.93,
578,2.62,
579,2.9,
580,2.67,
581,1.99,
582,1.07,
583,0.22,
584,-0.3,
585,-0.34,
586,0.08,
587,0.79,
588,1.53,
589,2.03,
590,2.12,
591,1.78,
592,1.16,
593,0.48,
594,-0.04,
595,-0.27,
596,-0.15,
597,0.21,
598,0.71,
599,1.26,
600,1.74,
601,2.08,
602,2.21,
603,2.11,
604,1.86,
605,1.59,
606,1.49,
607,1.68,
608,2.16,
609,2.79,
610,3.35,
611,3.61,
612,3.46,
613,2.97,
614,2.28,
615,1.6,
616,1.08,
617,0.74,
618,0.54,
619,0.41,
620,0.33,
621,0.36,
622,0.54,
623,0.89,
624,1.31,
625,1.62,
626,1.65,
627,1.33,
628,0.78,
629,0.19,
630,-0.19,
631,-0.23,
632,0.02,
633,0.37,
634,0.61,
635,0.61,
636,0.43,
637,0.23,
638,0.21,
639,0.49,
640,1.01,
641,1.62,
642,2.12,
643,2.36,
644,2.32,
645,2.01,
646,1.52,
647,0.89,
648,0.15,
649,-0.66,
650,-1.45,
651,-2.08,
652,-2.35,
653,-2.13,
654,-1.48,
655,-0.6,
656,0.14,
657,0.45,
658,0.16,
659,-0.63,
660,-1.64,
661,-2.51,
662,-2.99,
663,-2.99,
664,-2.56,
665,-1.84,
666,-0.96,
667,-0.05,
668,0.8,
669,1.49,
670,1.97,
671,2.22,
672,2.25,
673,2.14,
674,1.93,
675,1.7,
676,1.5,
677,1.38,
678,1.37,
679,1.4,
680,1.4,
681,1.25,
682,0.96,
683,0.59,
684,0.3,
685,0.21,
686,0.36,
687,0.65,
688,0.95,
689,1.11,
690,1.05,
691,0.78,
692,0.38,
693,-0.07,
694,-0.45,
695,-0.7,
696,-0.75,
697,-0.58,
698,-0.23,
699,0.25,
700,0.75,
701,1.19,
702,1.47,
703,1.53,
704,1.35,
705,1.0,
706,0.61,
707,0.35,
708,0.37,
709,0.67,
710,1.13,
711,1.57,
712,1.85,
713,1.93,
714,1.85,
715,1.71,
716,1.54,
717,1.33,
718,1.09,
719,0.87,
720,0.77,
721,0.88,
722,1.19,
723,1.56,
724,1.8,
725,1.75,
726,1.39,
727,0.85,
728,0.32,
729,-0.05,
730,-0.23,
731,-0.29,
732,-0.31,
733,-0.3,
734,-0.19,
735,0.11,
736,0.62,
737,1.25,
738,1.81,
739,2.11,
740,2.09,
741,1.78,
742,1.33,
743,0.85,
744,0.43,
745,0.05,
746,-0.33,
747,-0.69,
748,-1.0,
749,-1.13,
750,-1.03,
751,-0.64,
752,-0.05,
753,0.61,
754,1.16,
755,1.47,
756,1.53,
757,1.43,
758,1.29,
759,1.21,
760,1.21,
761,1.26,
762,1.28,
763,1.29,
764,1.34,
765,1.52,
766,1.84,
767,2.18,
768,2.4,
769,2.34,
770,2.03,
771,1.59,
772,1.22,
773,1.03,
774,1.01,
775,1.05,
776,1.05,
777,0.96,
778,0.84,
779,0.79,
780,0.84,
781,0.93,
782,0.94,
783,0.78,
784,0.44,
785,0.01,
786,-0.35,
787,-0.53,
788,-0.57,
789,-0.57,
790,-0.63,
791,-0.8,
792,-0.97,
793,-0.97,
794,-0.7,
795,-0.17,
796,0.44,
797,0.94,
798,1.2,
799,1.25,
800,1.23,
801,1.3,
802,1.51,
803,1.78,
804,1.91,
805,1.8,
806,1.43,
807,0.92,
808,0.51,
809,0.32,
810,0.43,
811,0.79,
812,1.28,
813,1.78,
814,2.18,
815,2.4,
816,2.37,
817,2.04,
818,1.36,
819,0.39,
820,-0.77,
821,-1.95,
822,-3.01,
823,-3.88,
824,-4.52,
825,-4.98,
826,-5.26,
827,-5.36,
828,-5.25,
829,-4.96,
830,-4.65,
831,-4.46,
832,-4.53,
833,-4.8,
834,-5.06,
835,-5.0,
836,-4.39,
837,-3.19,
838,-1.59,
839,0.08,
840,1.52,
841,2.55,
842,3.16,
843,3.44,
844,3.54,
845,3.61,
846,3.77,
847,4.06,
848,4.45,
849,4.84,
850,5.05,
851,4.97,
852,4.56,
853,3.94,
854,3.28,
855,2.71,
856,2.26,
857,1.92,
858,1.61,
859,1.31,
860,1.04,
861,0.84,
862,0.7,
863,0.59,
864,0.44,
865,0.24,
866,0.08,
867,0.08,
868,0.31,
869,0.75,
870,1.26,
871,1.64,
872,1.75,
873,1.53,
874,1.06,
875,0.52,
876,0.11,
877,-0.02,
878,0.2,
879,0.69,
880,1.27,
881,1.74,
882,1.91,
883,1.73,
884,1.22,
885,0.47,
886,-0.38,
887,-1.23,
888,-1.98,
889,-2.56,
890,-2.87,
891,-2.94,
892,-2.8,
893,-2.58,
894,-2.38,
895,-2.3,
896,-2.33,
897,-2.41,
898,-2.42,
899,-2.29,
900,-2.0,
901,-1.61,
902,-1.17,
903,-0.73,
904,-0.28,
905,0.16,
906,0.55,
907,0.85,
908,0.98,
909,0.94,
910,0.77,
911,0.58,
912,0.43,
913,0.36,
914,0.37,
915,0.43,
916,0.56,
917,0.79,
918,1.18,
919,1.7,
920,2.24,
921,2.63,
922,2.76,
923,2.64,
924,2.45,
925,2.42,
926,2.74,
927,3.45,
928,4.39,
929,5.28,
930,5.84,
931,5.91,
932,5.52,
933,4.79,
934,3.93,
935,3.09,
936,2.39,
937,1.83,
938,1.38,
939,1.0,
940,0.68,
941,0.44,
942,0.28,
943,0.13,
944,-0.13,
945,-0.62,
946,-1.36,
947,-2.19,
948,-2.81,
949,-2.95,
950,-2.53,
951,-1.69,
952,-0.8,
953,-0.19,
954,-0.01,
955,-0.17,
956,-0.43,
957,-0.64,
958,-0.75,
959,-0.83,
960,-0.97,
961,-1.12,
962,-1.13,
963,-0.9,
964,-0.46,
965,0.03,
966,0.36,
967,0.45,
968,0.37,
969,0.32,
970,0.43,
971,0.7,
972,1.04,
973,1.3,
974,1.48,
975,1.65,
976,1.93,
977,2.34,
978,2.8,
979,3.15,
980,3.26,
981,3.11,
982,2.76,
983,2.34,
984,1.95,
985,1.64,
986,1.39,
987,1.14,
988,0.84,
989,0.43,
990,-0.11,
991,-0.74,
992,-1.37,
993,-1.89,
994,-2.2,
995,-2.25,
996,-2.06,
997,-1.74,
998,-1.44,
999,-1.28,
1000,-1.33,
1001,-1.55,
1002,-1.84,
1003,-2.04,
1004,-2.02,
1005,-1.76,
1006,-1.27,
1007,-0.69,
1008,-0.15,
1009,0.27,
1010,0.52,
1011,0.59,
1012,0.5,
1013,0.3,
1014,0.06,
1015,-0.13,
1016,-0.19,
1017,-0.07,
1018,0.22,
1019,0.56,
1020,0.84,
1021,0.94,
1022,0.85,
1023,0.6,
1024,0.32,
1025,0.12,
1026,0.06,
1027,0.12,
1028,0.22,
1029,0.3,
1030,0.33,
1031,0.33,
1032,0.33,
1033,0.35,
1034,0.37,
1035,0.33,
1036,0.25,
1037,0.15,
1038,0.11,
1039,0.18,
1040,0.38,
1041,0.63,
1042,0.88,
1043,1.03,
1044,1.08,
1045,1.06,
1046,0.97,
1047,0.84,
1048,0.7,
1049,0.54,
1050,0.42,
1051,0.39,
1052,0.52,
1053,0.81,
1054,1.21,
1055,1.59,
1056,1.85,
1057,1.93,
1058,1.82,
1059,1.6,
1060,1.35,
1061,1.12,
1062,0.95,
1063,0.81,
1064,0.68,
1065,0.54,
1066,0.38,
1067,0.21,
1068,0.04,
1069,-0.1,
1070,-0.18,
1071,-0.13,
1072,0.05,
1073,0.39,
1074,0.8,
1075,1.16,
1076,1.36,
1077,1.31,
1078,0.99,
1079,0.45,
1080,-0.16,
1081,-0.72,
1082,-1.11,
1083,-1.27,
1084,-1.24,
1085,-1.1,
1086,-0.96,
1087,-0.87,
1088,-0.89,
1089,-0.99,
1090,-1.15,
1091,-1.35,
1092,-1.58,
1093,-1.8,
1094,-1.93,
1095,-1.88,
1096,-1.59,
1097,-1.06,
1098,-0.41,
1099,0.19,
1100,0.61,
1101,0.77,
1102,0.72,
1103,0.58,
1104,0.44,
1105,0.36,
1106,0.37,
1107,0.46,
1108,0.65,
1109,0.96,
1110,1.4,
1111,1.94,
1112,2.46,
1113,2.83,
1114,2.92,
1115,2.65,
1116,2.07,
1117,1.28,
1118,0.46,
1119,-0.17,
1120,-0.48,
1121,-0.42,
1122,-0.09,
1123,0.4,
1124,0.89,
1125,1.24,
1126,1.36,
1127,1.19,
1128,0.72,
1129,-0.01,
1130,-0.87,
1131,-1.65,
1132,-2.13,
1133,-2.17,
1134,-1.77,
1135,-1.04,
1136,-0.2,
1137,0.54,
1138,1.04,
1139,1.25,
1140,1.24,
1141,1.1,
1142,0.99,
1143,0.99,
1144,1.16,
1145,1.44,
1146,1.68,
1147,1.73,
1148,1.47,
1149,0.99,
1150,0.5,
1151,0.26,
1152,0.47,
1153,1.12,
1154,2.02,
1155,2.83,
1156,3.24,
1157,3.09,
1158,2.43,
1159,1.55,
1160,0.77,
1161,0.32,
1162,0.24,
1163,0.38,
1164,0.48,
1165,0.36,
1166,-0.04,
1167,-0.6,
1168,-1.19,
1169,-1.72,
1170,-2.19,
1171,-2.67,
1172,-3.16,
1173,-3.6,
1174,-3.82,
1175,-3.71,
1176,-3.2,
1177,-2.37,
1178,-1.46,
1179,-0.68,
1180,-0.23,
1181,-0.12,
1182,-0.23,
1183,-0.33,
1184,-0.18,
1185,0.29,
1186,1.02,
1187,1.8,
1188,2.36,
1189,2.56,
1190,2.4,
1191,2.06,
1192,1.73,
1193,1.57,
1194,1.58,
1195,1.66,
1196,1.73,
1197,1.75,
1198,1.74,
1199,1.74,
1200,1.78,
1201,1.78,
1202,1.69,
1203,1.44,
1204,1.04,
1205,0.61,
1206,0.29,
1207,0.19,
1208,0.34,
1209,0.67,
1210,1.02,
1211,1.25,
1212,1.26,
1213,0.99,
1214,0.48,
1215,-0.18,
1216,-0.86,
1217,-1.43,
1218,-1.76,
1219,-1.76,
1220,-1.47,
1221,-0.96,
1222,-0.4,
1223,0.05,
1224,0.27,
1225,0.21,
1226,-0.15,
1227,-0.72,
1228,-1.37,
1229,-1.94,
1230,-2.25,
1231,-2.16,
1232,-1.63,
1233,-0.75,
1234,0.29,
1235,1.29,
1236,2.03,
1237,2.42,
1238,2.43,
1239,2.13,
1240,1.59,
1241,0.97,
1242,0.44,
1243,0.16,
1244,0.29,
1245,0.85,
1246,1.66,
1247,2.46,
1248,2.97,
1249,2.99,
1250,2.56,
1251,1.84,
1252,1.08,
1253,0.44,
1254,-0.0,
1255,-0.31,
1256,-0.55,
1257,-0.72,
1258,-0.78,
1259,-0.69,
1260,-0.48,
1261,-0.27,
1262,-0.18,
1263,-0.27,
1264,-0.46,
1265,-0.57,
1266,-0.46,
1267,-0.11,
1268,0.32,
1269,0.62,
1270,0.59,
1271,0.21,
1272,-0.41,
1273,-1.04,
1274,-1.5,
1275,-1.68,
1276,-1.6,
1277,-1.32,
1278,-0.9,
1279,-0.43,
1280,0.06,
1281,0.54,
1282,0.93,
1283,1.13,
1284,1.04,
1285,0.65,
1286,0.03,
1287,-0.63,
1288,-1.14,
1289,-1.37,
1290,-1.28,
1291,-0.99,
1292,-0.64,
1293,-0.33,
1294,-0.07,
1295,0.16,
1296,0.47,
1297,0.79,
1298,1.02,
1299,0.97,
1300,0.54,
1301,-0.2,
1302,-1.01,
1303,-1.58,
1304,-1.69,
1305,-1.31,
1306,-0.6,
1307,0.18,
1308,0.8,
1309,1.21,
1310,1.43,
1311,1.61,
1312,1.8,
1313,2.0,
1314,2.12,
1315,2.09,
1316,1.88,
1317,1.59,
1318,1.37,
1319,1.32,
1320,1.45,
1321,1.65,
1322,1.74,
1323,1.56,
1324,1.1,
1325,0.48,
1326,-0.06,
1327,-0.35,
1328,-0.29,
1329,0.01,
1330,0.37,
1331,0.63,
1332,0.72,
1333,0.67,
1334,0.56,
1335,0.47,
1336,0.39,
1337,0.3,
1338,0.12,
1339,-0.18,
1340,-0.54,
1341,-0.86,
1342,-1.0,
1343,-0.86,
1344,-0.45,
1345,0.1,
1346,0.59,
1347,0.86,
1348,0.86,
1349,0.71,
1350,0.6,
1351,0.66,
1352,0.91,
1353,1.2,
1354,1.36,
1355,1.31,
1356,1.09,
1357,0.82,
1358,0.65,
1359,0.62,
1360,0.65,
1361,0.61,
1362,0.43,
1363,0.13,
1364,-0.22,
1365,-0.48,
1366,-0.61,
1367,-0.63,
1368,-0.61,
1369,-0.63,
1370,-0.67,
1371,-0.73,
1372,-0.72,
1373,-0.62,
1374,-0.39,
1375,-0.1,
1376,0.17,
1377,0.35,
1378,0.39,
1379,0.27,
1380,0.02,
1381,-0.26,
1382,-0.49,
1383,-0.54,
1384,-0.39,
1385,-0.09,
1386,0.23,
1387,0.43,
1388,0.43,
1389,0.22,
1390,-0.02,
1391,-0.13,
1392,0.03,
1393,0.46,
1394,1.03,
1395,1.52,
1396,1.72,
1397,1.54,
1398,1.05,
1399,0.43,
1400,-0.11,
1401,-0.41,
1402,-0.45,
1403,-0.29,
1404,-0.06,
1405,0.09,
1406,0.11,
1407,0.01,
1408,-0.15,
1409,-0.29,
1410,-0.36,
1411,-0.36,
1412,-0.34,
1413,-0.32,
1414,-0.27,
1415,-0.15,
1416,0.06,
1417,0.36,
1418,0.68,
1419,0.94,
1420,1.11,
1421,1.2,
1422,1.26,
1423,1.34,
1424,1.43,
1425,1.49,
1426,1.45,
1427,1.26,
1428,0.94,
1429,0.54,
1430,0.12,
1431,-0.25,
1432,-0.51,
1433,-0.62,
1434,-0.58,
1435,-0.42,
1436,-0.17,
1437,0.09,
1438,0.31,
1439,0.46,
1440,0.54,
1441,0.54,
1442,0.47,
1443,0.34,
1444,0.17,
1445,0.02,
1446,-0.04,
1447,0.01,
1448,0.12,
1449,0.22,
1450,0.2,
1451,-0.01,
1452,-0.44,
1453,-1.0,
1454,-1.58,
1455,-2.02,
1456,-2.24,
1457,-2.21,
1458,-1.96,
1459,-1.6,
1460,-1.24,
1461,-0.92,
1462,-0.63,
1463,-0.34,
1464,-0.04,
1465,0.21,
1466,0.36,
1467,0.34,
1468,0.21,
1469,0.17,
1470,0.4,
1471,0.99,
1472,1.85,
1473,2.7,
1474,3.23,
1475,3.28,
1476,2.85,
1477,2.14,
1478,1.42,
1479,0.9,
1480,0.66,
1481,0.67,
1482,0.86,
1483,1.15,
1484,1.47,
1485,1.74,
1486,1.89,
1487,1.81,
1488,1.47,
1489,0.91,
1490,0.26,
1491,-0.28,
1492,-0.58,
1493,-0.58,
1494,-0.34,
1495,-0.01,
1496,0.24,
1497,0.3,
1498,0.15,
1499,-0.16,
1500,-0.53,
1501,-0.84,
1502,-0.99,
1503,-0.97,
1504,-0.79,
1505,-0.48,
1506,-0.08,
1507,0.33,
1508,0.66,
1509,0.87,
1510,0.92,
1511,0.84,
1512,0.72,
1513,0.62,
1514,0.6,
1515,0.62,
1516,0.63,
1517,0.5,
1518,0.23,
1519,-0.15,
1520,-0.54,
1521,-0.79,
1522,-0.79,
1523,-0.54,
1524,-0.13,
1525,0.3,
1526,0.64,
1527,0.85,
1528,0.95,
1529,0.97,
1530,0.93,
1531,0.77,
1532,0.46,
1533,-0.04,
1534,-0.7,
1535,-1.41,
1536,-2.03,
1537,-2.39,
1538,-2.4,
1539,-2.04,
1540,-1.4,
1541,-0.67,
1542,-0.08,
1543,0.2,
1544,0.12,
1545,-0.19,
1546,-0.52,
1547,-0.66,
1548,-0.48,
1549,-0.04,
1550,0.52,
1551,1.06,
1552,1.47,
1553,1.74,
1554,1.9,
1555,1.95,
1556,1.89,
1557,1.73,
1558,1.54,
1559,1.36,
1560,1.24,
1561,1.14,
1562,0.98,
1563,0.71,
1564,0.34,
1565,-0.06,
1566,-0.39,
1567,-0.58,
1568,-0.66,
1569,-0.67,
1570,-0.64,
1571,-0.56,
1572,-0.39,
1573,-0.1,
1574,0.29,
1575,0.7,
1576,1.05,
1577,1.3,
1578,1.46,
1579,1.59,
1580,1.74,
1581,1.91,
1582,2.09,
1583,2.19,
1584,2.15,
1585,1.91,
1586,1.43,
1587,0.81,
1588,0.18,
1589,-0.26,
1590,-0.4,
1591,-0.21,
1592,0.2,
1593,0.63,
1594,0.96,
1595,1.08,
1596,1.01,
1597,0.79,
1598,0.49,
1599,0.17,
1600,-0.11,
1601,-0.27,
1602,-0.25,
1603,-0.01,
1604,0.42,
1605,0.89,
1606,1.24,
1607,1.33,
1608,1.08,
1609,0.57,
1610,-0.08,
1611,-0.68,
1612,-1.05,
1613,-1.1,
1614,-0.77,
1615,-0.1,
1616,0.74,
1617,1.53,
1618,2.02,
1619,2.06,
1620,1.59,
1621,0.71,
1622,-0.41,
1623,-1.58,
1624,-2.63,
1625,-3.44,
1626,-3.94,
1627,-4.11,
1628,-3.99,
1629,-3.68,
1630,-3.27,
1631,-2.86,
1632,-2.53,
1633,-2.26,
1634,-2.05,
1635,-1.86,
1636,-1.7,
1637,-1.62,
1638,-1.67,
1639,-1.82,
1640,-1.99,
1641,-2.07,
1642,-1.94,
1643,-1.62,
1644,-1.19,
1645,-0.82,
1646,-0.63,
1647,-0.62,
1648,-0.67,
1649,-0.62,
1650,-0.38,
1651,0.08,
1652,0.64,
1653,1.18,
1654,1.6,
1655,1.86,
1656,2.0,
1657,2.04,
1658,2.01,
1659,1.93,
1660,1.88,
1661,1.94,
1662,2.18,
1663,2.57,
1664,2.94,
1665,3.1,
1666,2.92,
1667,2.46,
1668,1.93,
1669,1.59,
1670,1.54,
1671,1.68,
1672,1.75,
1673,1.51,
1674,0.91,
1675,0.15,
1676,-0.47,
1677,-0.7,
1678,-0.54,
1679,-0.2,
1680,0.06,
1681,0.09,
1682,-0.01,
1683,-0.01,
1684,0.3,
1685,0.9,
1686,1.59,
1687,2.03,
1688,2.04,
1689,1.64,
1690,1.11,
1691,0.76,
1692,0.77,
1693,1.07,
1694,1.43,
1695,1.62,
1696,1.53,
1697,1.26,
1698,0.93,
1699,0.66,
1700,0.39,
1701,0.04,
1702,-0.47,
1703,-1.05,
1704,-1.5,
1705,-1.63,
1706,-1.4,
1707,-0.94,
1708,-0.49,
1709,-0.29,
1710,-0.4,
1711,-0.73,
1712,-1.1,
1713,-1.37,
1714,-1.46,
1715,-1.44,
1716,-1.38,
1717,-1.36,
1718,-1.4,
1719,-1.46,
1720,-1.49,
1721,-1.42,
1722,-1.21,
1723,-0.8,
1724,-0.2,
1725,0.55,
1726,1.37,
1727,2.13,
1728,2.7,
1729,3.0,
1730,3.0,
1731,2.73,
1732,2.29,
1733,1.79,
1734,1.35,
1735,1.04,
1736,0.93,
1737,1.04,
1738,1.32,
1739,1.72,
1740,2.13,
1741,2.46,
1742,2.6,
1743,2.54,
1744,2.27,
1745,1.86,
1746,1.39,
1747,0.88,
1748,0.34,
1749,-0.25,
1750,-0.86,
1751,-1.4,
1752,-1.74,
1753,-1.76,
1754,-1.41,
1755,-0.78,
1756,-0.05,
1757,0.56,
1758,0.89,
1759,0.88,
1760,0.57,
1761,0.13,
1762,-0.31,
1763,-0.59,
1764,-0.68,
1765,-0.59,
1766,-0.45,
1767,-0.4,
1768,-0.52,
1769,-0.84,
1770,-1.24,
1771,-1.56,
1772,-1.67,
1773,-1.52,
1774,-1.23,
1775,-0.95,
1776,-0.84,
1777,-0.93,
1778,-1.12,
1779,-1.25,
1780,-1.2,
1781,-0.95,
1782,-0.6,
1783,-0.25,
1784,0.01,
1785,0.21,
1786,0.39,
1787,0.59,
1788,0.76,
1789,0.87,
1790,0.91,
1791,0.87,
1792,0.85,
1793,0.85,
1794,0.88,
1795,0.9,
1796,0.88,
1797,0.9,
1798,1.02,
1799,1.29,
1800,1.66,
1801,1.93,
1802,1.93,
1803,1.59,
1804,1.0,
1805,0.44,
1806,0.14,
1807,0.19,
1808,0.48,
1809,0.81,
1810,0.94,
1811,0.8,
1812,0.47,
1813,0.1,
1814,-0.18,
1815,-0.29,
1816,-0.24,
1817,-0.11,
1818,0.04,
1819,0.16,
1820,0.23,
1821,0.28,
1822,0.37,
1823,0.55,
1824,0.83,
1825,1.16,
1826,1.39,
1827,1.4,
1828,1.09,
1829,0.52,
1830,-0.14,
1831,-0.72,
1832,-1.09,
1833,-1.27,
1834,-1.33,
1835,-1.34,
1836,-1.34,
1837,-1.26,
1838,-1.12,
1839,-0.96,
1840,-0.87,
1841,-0.91,
1842,-1.09,
1843,-1.27,
1844,-1.31,
1845,-1.15,
1846,-0.79,
1847,-0.33,
1848,0.1,
1849,0.4,
1850,0.53,
1851,0.5,
1852,0.32,
1853,0.05,
1854,-0.24,
1855,-0.46,
1856,-0.52,
1857,-0.38,
1858,-0.09,
1859,0.28,
1860,0.63,
1861,0.93,
1862,1.21,
1863,1.5,
1864,1.78,
1865,1.98,
1866,1.98,
1867,1.69,
1868,1.18,
1869,0.63,
1870,0.3,
1871,0.31,
1872,0.59,
1873,0.91,
1874,1.02,
1875,0.8,
1876,0.34,
1877,-0.11,
1878,-0.37,
1879,-0.44,
1880,-0.43,
1881,-0.56,
1882,-0.89,
1883,-1.35,
1884,-1.72,
1885,-1.84,
1886,-1.64,
1887,-1.24,
1888,-0.79,
1889,-0.44,
1890,-0.2,
1891,-0.06,
1892,0.07,
1893,0.21,
1894,0.36,
1895,0.45,
1896,0.42,
1897,0.24,
1898,-0.04,
1899,-0.26,
1900,-0.25,
1901,0.12,
1902,0.82,
1903,1.69,
1904,2.43,
1905,2.82,
1906,2.76,
1907,2.31,
1908,1.66,
1909,1.01,
1910,0.51,
1911,0.25,
1912,0.23,
1913,0.38,
1914,0.61,
1915,0.77,
1916,0.78,
1917,0.54,
1918,0.12,
1919,-0.39,
1920,-0.85,
1921,-1.16,
1922,-1.3,
1923,-1.31,
1924,-1.22,
1925,-1.04,
1926,-0.75,
1927,-0.34,
1928,0.14,
1929,0.57,
1930,0.85,
1931,0.89,
1932,0.74,
1933,0.51,
1934,0.36,
1935,0.38,
1936,0.57,
1937,0.81,
1938,0.96,
1939,0.98,
1940,0.93,
1941,0.97,
1942,1.23,
1943,1.71,
1944,2.26,
1945,2.63,
1946,2.58,
1947,2.01,
1948,1.03,
1949,-0.07,
1950,-0.94,
1951,-1.31,
1952,-1.12,
1953,-0.55,
1954,0.11,
1955,0.54,
1956,0.59,
1957,0.34,
1958,-0.0,
1959,-0.22,
1960,-0.2,
1961,0.01,
1962,0.24,
1963,0.4,
1964,0.44,
1965,0.44,
1966,0.46,
1967,0.5,
1968,0.48,
1969,0.3,
1970,-0.05,
1971,-0.48,
1972,-0.81,
1973,-0.94,
1974,-0.85,
1975,-0.66,
1976,-0.54,
1977,-0.59,
1978,-0.78,
1979,-1.01,
1980,-1.13,
1981,-1.05,
1982,-0.8,
1983,-0.51,
1984,-0.27,
1985,-0.2,
1986,-0.29,
1987,-0.48,
1988,-0.64,
1989,-0.65,
1990,-0.48,
1991,-0.22,
1992,-0.03,
1993,-0.09,
1994,-0.49,
1995,-1.1,
1996,-1.71,
1997,-2.1,
1998,-2.13,
1999,-1.88,
2000,-1.49,
2001,-1.14,
2002,-0.93,
2003,-0.87,
2004,-0.91,
2005,-0.99,
2006,-1.08,
2007,-1.1,
2008,-0.96,
2009,-0.58,
2010,0.07,
2011,0.89,
2012,1.71,
2013,2.34,
2014,2.66,
2015,2.67,
2016,2.5,
2017,2.25,
2018,2.02,
2019,1.84,
2020,1.69,
2021,1.56,
2022,1.47,
2023,1.46,
2024,1.55,
2025,1.71,
2026,1.82,
2027,1.78,
2028,1.5,
2029,0.98,
2030,0.35,
2031,-0.21,
2032,-0.5,
2033,-0.47,
2034,-0.18,
2035,0.2,
2036,0.46,
2037,0.51,
2038,0.34,
2039,0.05,
2040,-0.23,
2041,-0.38,
2042,-0.39,
2043,-0.28,
2044,-0.12,
2045,0.05,
2046,0.22,
2047,0.38,
2048,0.52,
2049,0.59,
2050,0.52,
2051,0.28,
2052,-0.1,
2053,-0.51,
2054,-0.76,
2055,-0.68,
2056,-0.21,
2057,0.6,
2058,1.48,
2059,2.12,
2060,2.26,
2061,1.8,
2062,0.87,
2063,-0.23,
2064,-1.11,
2065,-1.56,
2066,-1.46,
2067,-0.95,
2068,-0.23,
2069,0.43,
2070,0.84,
2071,0.87,
2072,0.55,
2073,-0.01,
2074,-0.63,
2075,-1.11,
2076,-1.35,
2077,-1.3,
2078,-1.01,
2079,-0.58,
2080,-0.12,
2081,0.29,
2082,0.58,
2083,0.72,
2084,0.72,
2085,0.61,
2086,0.41,
2087,0.19,
2088,0.0,
2089,-0.1,
2090,-0.1,
2091,0.03,
2092,0.25,
2093,0.5,
2094,0.66,
2095,0.61,
2096,0.27,
2097,-0.3,
2098,-0.93,
2099,-1.39,
2100,-1.48,
2101,-1.16,
2102,-0.58,
2103,-0.0,
2104,0.31,
2105,0.26,
2106,-0.08,
2107,-0.51,
2108,-0.82,
2109,-0.9,
2110,-0.8,
2111,-0.62,
2112,-0.46,
2113,-0.33,
2114,-0.16,
2115,0.17,
2116,0.66,
2117,1.2,
2118,1.61,
2119,1.71,
2120,1.43,
2121,0.86,
2122,0.17,
2123,-0.43,
2124,-0.81,
2125,-0.91,
2126,-0.76,
2127,-0.4,
2128,0.08,
2129,0.64,
2130,1.15,
2131,1.54,
2132,1.69,
2133,1.58,
2134,1.29,
2135,0.92,
2136,0.61,
2137,0.42,
2138,0.37,
2139,0.41,
2140,0.52,
2141,0.65,
2142,0.73,
2143,0.69,
2144,0.46,
2145,0.02,
2146,-0.53,
2147,-1.03,
2148,-1.29,
2149,-1.19,
2150,-0.72,
2151,-0.02,
2152,0.72,
2153,1.26,
2154,1.46,
2155,1.29,
2156,0.86,
2157,0.36,
2158,0.01,
2159,-0.06,
2160,0.17,
2161,0.6,
2162,1.02,
2163,1.24,
2164,1.12,
2165,0.62,
2166,-0.13,
2167,-0.9,
2168,-1.42,
2169,-1.5,
2170,-1.16,
2171,-0.62,
2172,-0.18,
2173,-0.08,
2174,-0.33,
2175,-0.72,
2176,-0.94,
2177,-0.79,
2178,-0.27,
2179,0.38,
2180,0.87,
2181,1.01,
2182,0.8,
2183,0.43,
2184,0.12,
2185,0.01,
2186,0.1,
2187,0.26,
2188,0.36,
2189,0.36,
2190,0.27,
2191,0.18,
2192,0.2,
2193,0.36,
2194,0.6,
2195,0.81,
2196,0.86,
2197,0.67,
2198,0.23,
2199,-0.39,
2200,-1.03,
2201,-1.54,
2202,-1.82,
2203,-1.84,
2204,-1.69,
2205,-1.49,
2206,-1.34,
2207,-1.29,
2208,-1.28,
2209,-1.2,
2210,-0.95,
2211,-0.51,
2212,0.08,
2213,0.73,
2214,1.3,
2215,1.72,
2216,1.94,
2217,1.96,
2218,1.78,
2219,1.43,
2220,1.0,
2221,0.59,
2222,0.3,
2223,0.17,
2224,0.17,
2225,0.22,
2226,0.26,
2227,0.26,
2228,0.28,
2229,0.35,
2230,0.45,
2231,0.51,
2232,0.42,
2233,0.18,
2234,-0.14,
2235,-0.4,
2236,-0.48,
2237,-0.34,
2238,-0.03,
2239,0.33,
2240,0.66,
2241,0.9,
2242,1.03,
2243,0.99,
2244,0.77,
2245,0.36,
2246,-0.15,
2247,-0.56,
2248,-0.69,
2249,-0.42,
2250,0.17,
2251,0.83,
2252,1.27,
2253,1.28,
2254,0.92,
2255,0.42,
2256,0.1,
2257,0.15,
2258,0.55,
2259,1.05,
2260,1.38,
2261,1.33,
2262,0.92,
2263,0.3,
2264,-0.27,
2265,-0.63,
2266,-0.75,
2267,-0.69,
2268,-0.61,
2269,-0.59,
2270,-0.68,
2271,-0.79,
2272,-0.84,
2273,-0.73,
2274,-0.44,
2275,-0.04,
2276,0.37,
2277,0.67,
2278,0.79,
2279,0.72,
2280,0.55,
2281,0.36,
2282,0.23,
2283,0.22,
2284,0.32,
2285,0.5,
2286,0.71,
2287,0.92,
2288,1.08,
2289,1.17,
2290,1.21,
2291,1.15,
2292,1.01,
2293,0.79,
2294,0.55,
2295,0.33,
2296,0.17,
2297,0.03,
2298,-0.17,
2299,-0.45,
2300,-0.86,
2301,-1.31,
2302,-1.73,
2303,-2.02,
2304,-2.19,
2305,-2.26,
2306,-2.25,
2307,-2.18,
2308,-2.02,
2309,-1.8,
2310,-1.54,
2311,-1.35,
2312,-1.27,
2313,-1.29,
2314,-1.32,
2315,-1.21,
2316,-0.91,
2317,-0.43,
2318,0.14,
2319,0.7,
2320,1.15,
2321,1.49,
2322,1.71,
2323,1.8,
2324,1.76,
2325,1.55,
2326,1.18,
2327,0.72,
2328,0.33,
2329,0.12,
2330,0.16,
2331,0.4,
2332,0.7,
2333,0.89,
2334,0.88,
2335,0.65,
2336,0.31,
2337,0.03,
2338,-0.06,
2339,0.09,
2340,0.39,
2341,0.69,
2342,0.86,
2343,0.86,
2344,0.73,
2345,0.57,
2346,0.49,
2347,0.48,
2348,0.49,
2349,0.5,
2350,0.57,
2351,0.8,
2352,1.29,
2353,2.02,
2354,2.83,
2355,3.46,
2356,3.67,
2357,3.41,
2358,2.76,
2359,1.97,
2360,1.29,
2361,0.86,
2362,0.68,
2363,0.62,
2364,0.55,
2365,0.38,
2366,0.13,
2367,-0.13,
2368,-0.37,
2369,-0.63,
2370,-0.96,
2371,-1.39,
2372,-1.89,
2373,-2.28,
2374,-2.4,
2375,-2.15,
2376,-1.57,
2377,-0.81,
2378,-0.15,
2379,0.23,
2380,0.2,
2381,-0.21,
2382,-0.84,
2383,-1.5,
2384,-1.97,
2385,-2.13,
2386,-1.95,
2387,-1.56,
2388,-1.16,
2389,-0.92,
2390,-0.94,
2391,-1.14,
2392,-1.38,
2393,-1.45,
2394,-1.28,
2395,-0.87,
2396,-0.32,
2397,0.25,
2398,0.77,
2399,1.18,
2400,1.5,
2401,1.74,
2402,1.92,
2403,2.04,
2404,2.1,
2405,2.08,
2406,1.97,
2407,1.77,
2408,1.5,
2409,1.23,
2410,0.99,
2411,0.79,
2412,0.62,
2413,0.43,
2414,0.2,
2415,-0.07,
2416,-0.3,
2417,-0.45,
2418,-0.47,
2419,-0.39,
2420,-0.24,
2421,-0.11,
2422,-0.04,
2423,-0.07,
2424,-0.21,
2425,-0.39,
2426,-0.57,
2427,-0.67,
2428,-0.71,
2429,-0.68,
2430,-0.62,
2431,-0.54,
2432,-0.42,
2433,-0.26,
2434,-0.06,
2435,0.09,
2436,0.08,
2437,-0.18,
2438,-0.67,
2439,-1.2,
2440,-1.54,
2441,-1.46,
2442,-0.91,
2443,-0.05,
2444,0.85,
2445,1.54,
2446,1.86,
2447,1.86,
2448,1.66,
2449,1.41,
2450,1.17,
2451,0.96,
2452,0.71,
2453,0.37,
2454,-0.01,
2455,-0.37,
2456,-0.61,
2457,-0.65,
2458,-0.49,
2459,-0.16,
2460,0.24,
2461,0.63,
2462,0.93,
2463,1.12,
2464,1.16,
2465,1.05,
2466,0.79,
2467,0.33,
2468,-0.26,
2469,-0.91,
2470,-1.46,
2471,-1.74,
2472,-1.64,
2473,-1.24,
2474,-0.66,
2475,-0.11,
2476,0.25,
2477,0.36,
2478,0.27,
2479,0.04,
2480,-0.27,
2481,-0.59,
2482,-0.89,
2483,-1.12,
2484,-1.23,
2485,-1.18,
2486,-0.96,
2487,-0.59,
2488,-0.15,
2489,0.29,
2490,0.7,
2491,1.09,
2492,1.46,
2493,1.82,
2494,2.2,
2495,2.58,
2496,2.91,
2497,3.14,
2498,3.17,
2499,2.9,
2500,2.29,
2501,1.38,
2502,0.32,
2503,-0.68,
2504,-1.43,
2505,-1.85,
2506,-1.96,
2507,-1.91,
2508,-1.83,
2509,-1.83,
2510,-1.9,
2511,-1.95,
2512,-1.87,
2513,-1.58,
2514,-1.1,
2515,-0.53,
2516,-0.04,
2517,0.23,
2518,0.22,
2519,0.04,
2520,-0.13,
2521,-0.13,
2522,0.13,
2523,0.56,
2524,0.93,
2525,1.04,
2526,0.81,
2527,0.35,
2528,-0.15,
2529,-0.5,
2530,-0.6,
2531,-0.51,
2532,-0.32,
2533,-0.12,
2534,0.1,
2535,0.38,
2536,0.74,
2537,1.17,
2538,1.59,
2539,1.88,
2540,1.94,
2541,1.72,
2542,1.27,
2543,0.71,
2544,0.2,
2545,-0.12,
2546,-0.19,
2547,-0.08,
2548,0.05,
2549,0.04,
2550,-0.17,
2551,-0.52,
2552,-0.81,
2553,-0.92,
2554,-0.8,
2555,-0.52,
2556,-0.2,
2557,0.11,
2558,0.44,
2559,0.85,
2560,1.36,
2561,1.95,
2562,2.47,
2563,2.81,
2564,2.89,
2565,2.71,
2566,2.36,
2567,1.92,
2568,1.51,
2569,1.17,
2570,0.94,
2571,0.81,
2572,0.77,
2573,0.81,
2574,0.91,
2575,1.01,
2576,1.05,
2577,0.95,
2578,0.64,
2579,0.1,
2580,-0.61,
2581,-1.3,
2582,-1.79,
2583,-1.96,
2584,-1.87,
2585,-1.72,
2586,-1.72,
2587,-1.99,
2588,-2.45,
2589,-2.89,
2590,-3.06,
2591,-2.83,
2592,-2.21,
2593,-1.35,
2594,-0.48,
2595,0.18,
2596,0.47,
2597,0.34,
2598,-0.14,
2599,-0.83,
2600,-1.49,
2601,-1.89,
2602,-1.91,
2603,-1.54,
2604,-0.95,
2605,-0.38,
2606,0.01,
2607,0.16,
2608,0.16,
2609,0.13,
2610,0.13,
2611,0.14,
2612,0.07,
2613,-0.12,
2614,-0.38,
2615,-0.55,
2616,-0.51,
2617,-0.19,
2618,0.35,
2619,0.92,
2620,1.36,
2621,1.55,
2622,1.5,
2623,1.29,
2624,0.99,
2625,0.69,
2626,0.43,
2627,0.23,
2628,0.1,
2629,0.05,
2630,0.07,
2631,0.19,
2632,0.39,
2633,0.63,
2634,0.81,
2635,0.83,
2636,0.63,
2637,0.24,
2638,-0.15,
2639,-0.36,
2640,-0.29,
2641,-0.0,
2642,0.29,
2643,0.35,
2644,0.08,
2645,-0.41,
2646,-0.9,
2647,-1.16,
2648,-1.14,
2649,-0.95,
2650,-0.78,
2651,-0.75,
2652,-0.78,
2653,-0.71,
2654,-0.35,
2655,0.33,
2656,1.15,
2657,1.76,
2658,1.89,
2659,1.45,
2660,0.62,
2661,-0.25,
2662,-0.77,
2663,-0.81,
2664,-0.42,
2665,0.09,
2666,0.41,
2667,0.39,
2668,0.09,
2669,-0.25,
2670,-0.38,
2671,-0.17,
2672,0.32,
2673,0.92,
2674,1.45,
2675,1.78,
2676,1.9,
2677,1.85,
2678,1.64,
2679,1.31,
2680,0.83,
2681,0.25,
2682,-0.39,
2683,-1.01,
2684,-1.49,
2685,-1.75,
2686,-1.69,
2687,-1.29,
2688,-0.65,
2689,0.08,
2690,0.74,
2691,1.2,
2692,1.47,
2693,1.6,
2694,1.68,
2695,1.71,
2696,1.67,
2697,1.55,
2698,1.37,
2699,1.25,
2700,1.28,
2701,1.48,
2702,1.77,
2703,1.97,
2704,1.95,
2705,1.67,
2706,1.23,
2707,0.76,
2708,0.39,
2709,0.15,
2710,-0.02,
2711,-0.22,
2712,-0.5,
2713,-0.89,
2714,-1.36,
2715,-1.82,
2716,-2.17,
2717,-2.3,
2718,-2.15,
2719,-1.68,
2720,-0.93,
2721,-0.03,
2722,0.84,
2723,1.46,
2724,1.67,
2725,1.44,
2726,0.89,
2727,0.23,
2728,-0.32,
2729,-0.65,
2730,-0.78,
2731,-0.85,
2732,-0.99,
2733,-1.23,
2734,-1.48,
2735,-1.57,
2736,-1.43,
2737,-1.08,
2738,-0.69,
2739,-0.47,
2740,-0.52,
2741,-0.8,
2742,-1.13,
2743,-1.36,
2744,-1.39,
2745,-1.27,
2746,-1.13,
2747,-1.05,
2748,-1.04,
2749,-1.03,
2750,-0.94,
2751,-0.74,
2752,-0.5,
2753,-0.31,
2754,-0.19,
2755,-0.12,
2756,-0.01,
2757,0.23,
2758,0.59,
2759,1.01,
2760,1.36,
2761,1.53,
2762,1.47,
2763,1.18,
2764,0.78,
2765,0.41,
2766,0.21,
2767,0.29,
2768,0.61,
2769,1.05,
2770,1.45,
2771,1.66,
2772,1.61,
2773,1.32,
2774,0.88,
2775,0.44,
2776,0.15,
2777,0.12,
2778,0.38,
2779,0.85,
2780,1.36,
2781,1.71,
2782,1.77,
2783,1.5,
2784,0.99,
2785,0.44,
2786,-0.01,
2787,-0.24,
2788,-0.26,
2789,-0.1,
2790,0.14,
2791,0.38,
2792,0.57,
2793,0.66,
2794,0.68,
2795,0.62,
2796,0.55,
2797,0.53,
2798,0.62,
2799,0.84,
2800,1.18,
2801,1.58,
2802,1.92,
2803,2.04,
2804,1.82,
2805,1.24,
2806,0.4,
2807,-0.46,
2808,-1.09,
2809,-1.33,
2810,-1.19,
2811,-0.84,
2812,-0.5,
2813,-0.35,
2814,-0.42,
2815,-0.65,
2816,-0.93,
2817,-1.17,
2818,-1.35,
2819,-1.52,
2820,-1.7,
2821,-1.83,
2822,-1.8,
2823,-1.51,
2824,-0.96,
2825,-0.26,
2826,0.37,
2827,0.72,
2828,0.7,
2829,0.4,
2830,0.01,
2831,-0.24,
2832,-0.2,
2833,0.1,
2834,0.52,
2835,0.83,
2836,0.87,
2837,0.61,
2838,0.16,
2839,-0.26,
2840,-0.41,
2841,-0.17,
2842,0.43,
2843,1.23,
2844,1.92,
2845,2.26,
2846,2.16,
2847,1.71,
2848,1.18,
2849,0.76,
2850,0.54,
2851,0.46,
2852,0.35,
2853,0.09,
2854,-0.3,
2855,-0.68,
2856,-0.93,
2857,-0.98,
2858,-0.92,
2859,-0.91,
2860,-1.04,
2861,-1.29,
2862,-1.52,
2863,-1.57,
2864,-1.43,
2865,-1.25,
2866,-1.19,
2867,-1.37,
2868,-1.7,
2869,-2.02,
2870,-2.18,
2871,-2.12,
2872,-1.9,
2873,-1.67,
2874,-1.48,
2875,-1.29,
2876,-1.0,
2877,-0.49,
2878,0.2,
2879,0.93,
2880,1.52,
2881,1.82,
2882,1.83,
2883,1.64,
2884,1.41,
2885,1.2,
2886,0.96,
2887,0.62,
2888,0.12,
2889,-0.48,
2890,-1.01,
2891,-1.28,
2892,-1.12,
2893,-0.61,
2894,0.1,
2895,0.76,
2896,1.22,
2897,1.47,
2898,1.6,
2899,1.75,
2900,1.94,
2901,2.13,
2902,2.24,
2903,2.25,
2904,2.2,
2905,2.11,
2906,2.02,
2907,1.86,
2908,1.55,
2909,1.06,
2910,0.48,
2911,-0.05,
2912,-0.4,
2913,-0.48,
2914,-0.37,
2915,-0.22,
2916,-0.17,
2917,-0.34,
2918,-0.72,
2919,-1.2,
2920,-1.64,
2921,-1.9,
2922,-1.93,
2923,-1.71,
2924,-1.29,
2925,-0.79,
2926,-0.32,
2927,0.01,
2928,0.11,
2929,0.0,
2930,-0.24,
2931,-0.48,
2932,-0.57,
2933,-0.45,
2934,-0.13,
2935,0.3,
2936,0.73,
2937,1.1,
2938,1.36,
2939,1.47,
2940,1.34,
2941,0.91,
2942,0.2,
2943,-0.67,
2944,-1.48,
2945,-2.03,
2946,-2.23,
2947,-2.17,
2948,-2.02,
2949,-1.89,
2950,-1.82,
2951,-1.71,
2952,-1.43,
2953,-0.95,
2954,-0.35,
2955,0.21,
2956,0.65,
2957,0.94,
2958,1.19,
2959,1.49,
2960,1.82,
2961,2.11,
2962,2.2,
2963,2.03,
2964,1.6,
2965,1.06,
2966,0.57,
2967,0.23,
2968,0.08,
2969,0.09,
2970,0.19,
2971,0.36,
2972,0.61,
2973,0.94,
2974,1.34,
2975,1.77,
2976,2.15,
2977,2.39,
2978,2.41,
2979,2.18,
2980,1.71,
2981,1.07,
2982,0.38,
2983,-0.25,
2984,-0.71,
2985,-1.0,
2986,-1.2,
2987,-1.44,
2988,-1.8,
2989,-2.28,
2990,-2.75,
2991,-3.03,
2992,-2.94,
2993,-2.48,
2994,-1.77,
2995,-1.06,
2996,-0.58,
2997,-0.39,
2998,-0.44,
2999,-0.57,
3000,-0.64,
3001,-0.57,
3002,-0.41,
3003,-0.2,
3004,0.05,
3005,0.37,
3006,0.82,
3007,1.39,
3008,2.0,
3009,2.43,
3010,2.5,
3011,2.14,
3012,1.4,
3013,0.52,
3014,-0.2,
3015,-0.55,
3016,-0.48,
3017,-0.12,
3018,0.28,
3019,0.5,
3020,0.49,
3021,0.3,
3022,0.11,
3023,0.0,
3024,0.01,
3025,0.06,
3026,0.09,
3027,0.05,
3028,-0.01,
3029,-0.05,
3030,-0.04,
3031,0.01,
3032,0.03,
3033,-0.02,
3034,-0.15,
3035,-0.33,
3036,-0.49,
3037,-0.53,
3038,-0.38,
3039,-0.04,
3040,0.41,
3041,0.84,
3042,1.14,
3043,1.19,
3044,1.0,
3045,0.61,
3046,0.06,
3047,-0.54,
3048,-1.1,
3049,-1.48,
3050,-1.57,
3051,-1.31,
3052,-0.76,
3053,-0.05,
3054,0.6,
3055,1.02,
3056,1.15,
3057,1.03,
3058,0.76,
3059,0.49,
3060,0.31,
3061,0.25,
3062,0.28,
3063,0.35,
3064,0.39,
3065,0.36,
3066,0.3,
3067,0.25,
3068,0.27,
3069,0.36,
3070,0.47,
3071,0.53,
3072,0.56,
3073,0.6,
3074,0.77,
3075,1.12,
3076,1.55,
3077,1.9,
3078,1.93,
3079,1.53,
3080,0.78,
3081,-0.08,
3082,-0.77,
3083,-1.1,
3084,-1.09,
3085,-0.92,
3086,-0.83,
3087,-0.99,
3088,-1.39,
3089,-1.86,
3090,-2.19,
3091,-2.28,
3092,-2.1,
3093,-1.77,
3094,-1.47,
3095,-1.31,
3096,-1.28,
3097,-1.31,
3098,-1.26,
3099,-1.07,
3100,-0.72,
3101,-0.31,
3102,0.06,
3103,0.32,
3104,0.5,
3105,0.62,
3106,0.75,
3107,0.84,
3108,0.87,
3109,0.83,
3110,0.77,
3111,0.85,
3112,1.17,
3113,1.7,
3114,2.27,
3115,2.63,
3116,2.58,
3117,2.11,
3118,1.38,
3119,0.66,
3120,0.17,
3121,-0.01,
3122,0.03,
3123,0.1,
3124,0.03,
3125,-0.28,
3126,-0.79,
3127,-1.38,
3128,-1.88,
3129,-2.2,
3130,-2.26,
3131,-2.09,
3132,-1.72,
3133,-1.2,
3134,-0.59,
3135,0.09,
3136,0.73,
3137,1.21,
3138,1.41,
3139,1.24,
3140,0.74,
3141,0.06,
3142,-0.61,
3143,-1.07,
3144,-1.2,
3145,-0.98,
3146,-0.46,
3147,0.23,
3148,0.95,
3149,1.56,
3150,1.99,
3151,2.18,
3152,2.13,
3153,1.94,
3154,1.71,
3155,1.55,
3156,1.5,
3157,1.57,
3158,1.66,
3159,1.72,
3160,1.69,
3161,1.56,
3162,1.36,
3163,1.09,
3164,0.75,
3165,0.34,
3166,-0.15,
3167,-0.64,
3168,-1.04,
3169,-1.26,
3170,-1.27,
3171,-1.14,
3172,-1.04,
3173,-1.15,
3174,-1.57,
3175,-2.21,
3176,-2.86,
3177,-3.22,
3178,-3.1,
3179,-2.51,
3180,-1.68,
3181,-0.89,
3182,-0.38,
3183,-0.22,
3184,-0.3,
3185,-0.48,
3186,-0.61,
3187,-0.63,
3188,-0.5,
3189,-0.24,
3190,0.14,
3191,0.6,
3192,1.04,
3193,1.34,
3194,1.41,
3195,1.19,
3196,0.76,
3197,0.27,
3198,-0.11,
3199,-0.23,
3200,-0.03,
3201,0.42,
3202,0.99,
3203,1.49,
3204,1.82,
3205,1.94,
3206,1.9,
3207,1.75,
3208,1.5,
3209,1.12,
3210,0.57,
3211,-0.09,
3212,-0.7,
3213,-1.05,
3214,-0.96,
3215,-0.44,
3216,0.38,
3217,1.2,
3218,1.78,
3219,1.94,
3220,1.65,
3221,1.04,
3222,0.26,
3223,-0.44,
3224,-0.89,
3225,-0.99,
3226,-0.78,
3227,-0.44,
3228,-0.16,
3229,-0.13,
3230,-0.37,
3231,-0.77,
3232,-1.14,
3233,-1.3,
3234,-1.17,
3235,-0.81,
3236,-0.4,
3237,-0.1,
3238,-0.01,
3239,-0.15,
3240,-0.4,
3241,-0.64,
3242,-0.75,
3243,-0.67,
3244,-0.46,
3245,-0.2,
3246,-0.03,
3247,0.02,
3248,0.0,
3249,0.05,
3250,0.29,
3251,0.73,
3252,1.25,
3253,1.69,
3254,1.91,
3255,1.86,
3256,1.65,
3257,1.38,
3258,1.16,
3259,0.97,
3260,0.76,
3261,0.49,
3262,0.2,
3263,-0.02,
3264,-0.09,
3265,-0.04,
3266,0.01,
3267,-0.1,
3268,-0.54,
3269,-1.27,
3270,-2.14,
3271,-2.86,
3272,-3.15,
3273,-2.89,
3274,-2.15,
3275,-1.2,
3276,-0.32,
3277,0.25,
3278,0.46,
3279,0.43,
3280,0.37,
3281,0.45,
3282,0.72,
3283,1.11,
3284,1.49,
3285,1.73,
3286,1.79,
3287,1.7,
3288,1.53,
3289,1.31,
3290,1.02,
3291,0.59,
3292,-0.03,
3293,-0.8,
3294,-1.58,
3295,-2.14,
3296,-2.28,
3297,-1.93,
3298,-1.16,
3299,-0.21,
3300,0.61,
3301,1.12,
3302,1.26,
3303,1.16,
3304,1.0,
3305,0.91,
3306,0.92,
3307,0.95,
3308,0.91,
3309,0.77,
3310,0.55,
3311,0.31,
3312,0.07,
3313,-0.18,
3314,-0.46,
3315,-0.76,
3316,-1.01,
3317,-1.13,
3318,-1.1,
3319,-0.99,
3320,-0.91,
3321,-0.97,
3322,-1.15,
3323,-1.37,
3324,-1.52,
3325,-1.49,
3326,-1.26,
3327,-0.91,
3328,-0.49,
3329,-0.09,
3330,0.31,
3331,0.68,
3332,1.0,
3333,1.2,
3334,1.19,
3335,0.91,
3336,0.41,
3337,-0.16,
3338,-0.6,
3339,-0.76,
3340,-0.62,
3341,-0.3,
3342,-0.02,
3343,0.1,
3344,0.04,
3345,-0.07,
3346,-0.05,
3347,0.17,
3348,0.56,
3349,0.95,
3350,1.23,
3351,1.33,
3352,1.37,
3353,1.47,
3354,1.7,
3355,2.03,
3356,2.32,
3357,2.5,
3358,2.52,
3359,2.47,
3360,2.41,
3361,2.39,
3362,2.39,
3363,2.29,
3364,2.02,
3365,1.55,
3366,0.92,
3367,0.26,
3368,-0.3,
3369,-0.66,
3370,-0.77,
3371,-0.71,
3372,-0.58,
3373,-0.51,
3374,-0.55,
3375,-0.68,
3376,-0.8,
3377,-0.81,
3378,-0.72,
3379,-0.63,
3380,-0.67,
3381,-0.87,
3382,-1.15,
3383,-1.38,
3384,-1.42,
3385,-1.28,
3386,-1.1,
3387,-1.03,
3388,-1.14,
3389,-1.37,
3390,-1.57,
3391,-1.62,
3392,-1.51,
3393,-1.32,
3394,-1.16,
3395,-1.08,
3396,-1.08,
3397,-1.09,
3398,-1.04,
3399,-0.93,
3400,-0.74,
3401,-0.48,
3402,-0.15,
3403,0.22,
3404,0.55,
3405,0.77,
3406,0.81,
3407,0.67,
3408,0.36,
3409,-0.04,
3410,-0.46,
3411,-0.84,
3412,-1.11,
3413,-1.21,
3414,-1.15,
3415,-0.94,
3416,-0.66,
3417,-0.39,
3418,-0.19,
3419,-0.09,
3420,-0.05,
3421,-0.0,
3422,0.16,
3423,0.46,
3424,0.87,
3425,1.25,
3426,1.4,
3427,1.16,
3428,0.54,
3429,-0.28,
3430,-0.99,
3431,-1.26,
3432,-0.99,
3433,-0.27,
3434,0.63,
3435,1.37,
3436,1.79,
3437,1.84,
3438,1.66,
3439,1.38,
3440,1.11,
3441,0.93,
3442,0.84,
3443,0.85,
3444,0.88,
3445,0.83,
3446,0.6,
3447,0.16,
3448,-0.38,
3449,-0.78,
3450,-0.81,
3451,-0.32,
3452,0.62,
3453,1.75,
3454,2.73,
3455,3.28,
3456,3.26,
3457,2.7,
3458,1.8,
3459,0.78,
3460,-0.08,
3461,-0.7,
3462,-0.99,
3463,-1.05,
3464,-0.98,
3465,-0.86,
3466,-0.77,
3467,-0.68,
3468,-0.63,
3469,-0.67,
3470,-0.82,
3471,-1.16,
3472,-1.61,
3473,-1.98,
3474,-2.06,
3475,-1.73,
3476,-1.05,
3477,-0.26,
3478,0.33,
3479,0.53,
3480,0.32,
3481,-0.09,
3482,-0.48,
3483,-0.64,
3484,-0.51,
3485,-0.13,
3486,0.42,
3487,1.07,
3488,1.74,
3489,2.33,
3490,2.73,
3491,2.77,
3492,2.46,
3493,1.85,
3494,1.19,
3495,0.71,
3496,0.54,
3497,0.7,
3498,1.01,
3499,1.24,
3500,1.22,
3501,0.84,
3502,0.2,
3503,-0.54,
3504,-1.22,
3505,-1.75,
3506,-2.13,
3507,-2.43,
3508,-2.65,
3509,-2.75,
3510,-2.63,
3511,-2.25,
3512,-1.73,
3513,-1.29,
3514,-1.12,
3515,-1.3,
3516,-1.69,
3517,-2.0,
3518,-1.9,
3519,-1.26,
3520,-0.16,
3521,1.06,
3522,2.01,
3523,2.4,
3524,2.16,
3525,1.48,
3526,0.68,
3527,0.05,
3528,-0.26,
3529,-0.26,
3530,-0.09,
3531,0.1,
3532,0.25,
3533,0.38,
3534,0.56,
3535,0.81,
3536,1.09,
3537,1.25,
3538,1.15,
3539,0.76,
3540,0.17,
3541,-0.45,
3542,-0.84,
3543,-0.86,
3544,-0.49,
3545,0.16,
3546,0.84,
3547,1.28,
3548,1.31,
3549,0.91,
3550,0.24,
3551,-0.46,
3552,-0.98,
3553,-1.19,
3554,-1.13,
3555,-0.92,
3556,-0.69,
3557,-0.5,
3558,-0.34,
3559,-0.18,
3560,-0.0,
3561,0.18,
3562,0.31,
3563,0.32,
3564,0.24,
3565,0.15,
3566,0.16,
3567,0.34,
3568,0.69,
3569,1.11,
3570,1.44,
3571,1.54,
3572,1.29,
3573,0.71,
3574,-0.09,
3575,-0.92,
3576,-1.54,
3577,-1.78,
3578,-1.56,
3579,-0.96,
3580,-0.15,
3581,0.64,
3582,1.2,
3583,1.44,
3584,1.38,
3585,1.12,
3586,0.81,
3587,0.52,
3588,0.29,
3589,0.1,
3590,-0.02,
3591,-0.05,
3592,0.04,
3593,0.25,
3594,0.48,
3595,0.59,
3596,0.49,
3597,0.17,
3598,-0.23,
3599,-0.51,
3600,-0.47,
3601,-0.11,
3602,0.47,
3603,1.0,
3604,1.24,
3605,1.1,
3606,0.62,
3607,-0.02,
3608,-0.6,
3609,-0.95,
3610,-1.03,
3611,-0.88,
3612,-0.64,
3613,-0.47,
3614,-0.46,
3615,-0.58,
3616,-0.77,
3617,-0.94,
3618,-1.03,
3619,-1.08,
3620,-1.1,
3621,-1.11,
3622,-1.05,
3623,-0.81,
3624,-0.34,
3625,0.33,
3626,1.0,
3627,1.46,
3628,1.51,
3629,1.12,
3630,0.44,
3631,-0.31,
3632,-0.85,
3633,-1.02,
3634,-0.76,
3635,-0.17,
3636,0.57,
3637,1.25,
3638,1.68,
3639,1.78,
3640,1.57,
3641,1.17,
3642,0.75,
3643,0.42,
3644,0.27,
3645,0.26,
3646,0.36,
3647,0.47,
3648,0.53,
3649,0.45,
3650,0.21,
3651,-0.14,
3652,-0.5,
3653,-0.74,
3654,-0.74,
3655,-0.53,
3656,-0.2,
3657,0.1,
3658,0.23,
3659,0.2,
3660,0.04,
3661,-0.13,
3662,-0.25,
3663,-0.29,
3664,-0.34,
3665,-0.45,
3666,-0.66,
3667,-0.93,
3668,-1.18,
3669,-1.32,
3670,-1.3,
3671,-1.13,
3672,-0.83,
3673,-0.43,
3674,0.0,
3675,0.41,
3676,0.69,
3677,0.77,
3678,0.62,
3679,0.31,
3680,-0.05,
3681,-0.3,
3682,-0.34,
3683,-0.21,
3684,-0.02,
3685,0.13,
3686,0.15,
3687,0.06,
3688,-0.07,
3689,-0.17,
3690,-0.2,
3691,-0.15,
3692,-0.02,
3693,0.17,
3694,0.4,
3695,0.66,
3696,0.93,
3697,1.16,
3698,1.34,
3699,1.5,
3700,1.65,
3701,1.81,
3702,1.94,
3703,1.98,
3704,1.87,
3705,1.59,
3706,1.18,
3707,0.7,
3708,0.24,
3709,-0.12,
3710,-0.37,
3711,-0.49,
3712,-0.56,
3713,-0.68,
3714,-0.93,
3715,-1.38,
3716,-1.96,
3717,-2.56,
3718,-2.99,
3719,-3.04,
3720,-2.64,
3721,-1.8,
3722,-0.72,
3723,0.32,
3724,1.1,
3725,1.47,
3726,1.43,
3727,1.13,
3728,0.73,
3729,0.32,
3730,-0.05,
3731,-0.42,
3732,-0.82,
3733,-1.26,
3734,-1.65,
3735,-1.9,
3736,-1.92,
3737,-1.67,
3738,-1.22,
3739,-0.68,
3740,-0.15,
3741,0.28,
3742,0.62,
3743,0.87,
3744,1.07,
3745,1.18,
3746,1.18,
3747,1.06,
3748,0.84,
3749,0.65,
3750,0.59,
3751,0.73,
3752,1.02,
3753,1.29,
3754,1.36,
3755,1.15,
3756,0.68,
3757,0.11,
3758,-0.4,
3759,-0.72,
3760,-0.82,
3761,-0.72,
3762,-0.43,
3763,-0.01,
3764,0.55,
3765,1.19,
3766,1.83,
3767,2.35,
3768,2.65,
3769,2.7,
3770,2.51,
3771,2.19,
3772,1.89,
3773,1.72,
3774,1.73,
3775,1.8,
3776,1.81,
3777,1.61,
3778,1.18,
3779,0.64,
3780,0.19,
3781,0.01,
3782,0.12,
3783,0.42,
3784,0.71,
3785,0.83,
3786,0.73,
3787,0.44,
3788,0.06,
3789,-0.31,
3790,-0.63,
3791,-0.9,
3792,-1.13,
3793,-1.37,
3794,-1.61,
3795,-1.85,
3796,-2.04,
3797,-2.11,
3798,-1.99,
3799,-1.73,
3800,-1.45,
3801,-1.3,
3802,-1.43,
3803,-1.83,
3804,-2.37,
3805,-2.81,
3806,-2.94,
3807,-2.69,
3808,-2.08,
3809,-1.24,
3810,-0.37,
3811,0.35,
3812,0.76,
3813,0.82,
3814,0.57,
3815,0.19,
3816,-0.14,
3817,-0.24,
3818,-0.11,
3819,0.16,
3820,0.34,
3821,0.27,
3822,-0.07,
3823,-0.53,
3824,-0.89,
3825,-1.01,
3826,-0.86,
3827,-0.6,
3828,-0.41,
3829,-0.41,
3830,-0.58,
3831,-0.82,
3832,-0.96,
3833,-0.9,
3834,-0.67,
3835,-0.39,
3836,-0.21,
3837,-0.21,
3838,-0.39,
3839,-0.62,
3840,-0.79,
3841,-0.81,
3842,-0.67,
3843,-0.49,
3844,-0.42,
3845,-0.59,
3846,-1.0,
3847,-1.6,
3848,-2.22,
3849,-2.73,
3850,-3.04,
3851,-3.13,
3852,-3.03,
3853,-2.75,
3854,-2.31,
3855,-1.7,
3856,-0.98,
3857,-0.32,
3858,0.1,
3859,0.12,
3860,-0.23,
3861,-0.77,
3862,-1.16,
3863,-1.11,
3864,-0.5,
3865,0.57,
3866,1.8,
3867,2.87,
3868,3.53,
3869,3.74,
3870,3.59,
3871,3.3,
3872,3.02,
3873,2.87,
3874,2.86,
3875,2.91,
3876,2.92,
3877,2.8,
3878,2.52,
3879,2.09,
3880,1.59,
3881,1.16,
3882,0.91,
3883,0.92,
3884,1.15,
3885,1.52,
3886,1.88,
3887,2.17,
3888,2.35,
3889,2.47,
3890,2.53,
3891,2.52,
3892,2.35,
3893,1.99,
3894,1.45,
3895,0.87,
3896,0.44,
3897,0.29,
3898,0.49,
3899,0.91,
3900,1.37,
3901,1.7,
3902,1.8,
3903,1.67,
3904,1.38,
3905,1.01,
3906,0.63,
3907,0.33,
3908,0.2,
3909,0.25,
3910,0.46,
3911,0.69,
3912,0.79,
3913,0.63,
3914,0.18,
3915,-0.43,
3916,-1.01,
3917,-1.35,
3918,-1.37,
3919,-1.05,
3920,-0.53,
3921,0.01,
3922,0.45,
3923,0.67,
3924,0.64,
3925,0.37,
3926,-0.07,
3927,-0.55,
3928,-0.98,
3929,-1.26,
3930,-1.39,
3931,-1.43,
3932,-1.47,
3933,-1.6,
3934,-1.85,
3935,-2.2,
3936,-2.54,
3937,-2.76,
3938,-2.77,
3939,-2.61,
3940,-2.41,
3941,-2.34,
3942,-2.49,
3943,-2.87,
3944,-3.29,
3945,-3.59,
3946,-3.67,
3947,-3.54,
3948,-3.33,
3949,-3.12,
3950,-2.93,
3951,-2.67,
3952,-2.26,
3953,-1.7,
3954,-1.1,
3955,-0.64,
3956,-0.36,
3957,-0.22,
3958,-0.05,
3959,0.29,
3960,0.83,
3961,1.4,
3962,1.79,
3963,1.85,
3964,1.57,
3965,1.11,
3966,0.7,
3967,0.53,
3968,0.66,
3969,1.05,
3970,1.57,
3971,2.09,
3972,2.51,
3973,2.74,
3974,2.75,
3975,2.56,
3976,2.24,
3977,1.92,
3978,1.76,
3979,1.85,
3980,2.17,
3981,2.64,
3982,3.06,
3983,3.26,
3984,3.14,
3985,2.65,
3986,1.88,
3987,0.94,
3988,-0.03,
3989,-0.89,
3990,-1.49,
3991,-1.77,
3992,-1.72,
3993,-1.45,
3994,-1.11,
3995,-0.83,
3996,-0.74,
3997,-0.8,
3998,-0.88,
3999,-0.79,
4000,-0.39,
4001,0.34,
4002,1.25,
4003,2.11,
4004,2.65,
4005,2.75,
4006,2.4,
4007,1.76,
4008,1.05,
4009,0.43,
4010,-0.04,
4011,-0.36,
4012,-0.6,
4013,-0.8,
4014,-0.96,
4015,-1.08,
4016,-1.15,
4017,-1.19,
4018,-1.25,
4019,-1.4,
4020,-1.64,
4021,-1.89,
4022,-2.04,
4023,-2.0,
4024,-1.7,
4025,-1.22,
4026,-0.68,
4027,-0.26,
4028,-0.09,
4029,-0.17,
4030,-0.39,
4031,-0.53,
4032,-0.38,
4033,0.14,
4034,0.97,
4035,1.87,
4036,2.55,
4037,2.81,
4038,2.6,
4039,2.02,
4040,1.29,
4041,0.6,
4042,0.03,
4043,-0.42,
4044,-0.8,
4045,-1.15,
4046,-1.44,
4047,-1.56,
4048,-1.48,
4049,-1.2,
4050,-0.86,
4051,-0.62,
4052,-0.6,
4053,-0.81,
4054,-1.09,
4055,-1.25,
4056,-1.16,
4057,-0.78,
4058,-0.2,
4059,0.38,
4060,0.82,
4061,1.03,
4062,1.02,
4063,0.9,
4064,0.74,
4065,0.58,
4066,0.42,
4067,0.23,
4068,-0.02,
4069,-0.3,
4070,-0.55,
4071,-0.71,
4072,-0.71,
4073,-0.54,
4074,-0.22,
4075,0.2,
4076,0.6,
4077,0.9,
4078,0.99,
4079,0.83,
4080,0.5,
4081,0.18,
4082,0.05,
4083,0.23,
4084,0.69,
4085,1.23,
4086,1.63,
4087,1.72,
4088,1.47,
4089,0.98,
4090,0.46,
4091,0.02,
4092,-0.28,
4093,-0.43,
4094,-0.52,
4095,-0.54,
4096,-0.55,
4097,-0.54,
4098,-0.53,
4099,-0.52,
4100,-0.51,
4101,-0.46,
4102,-0.32,
4103,-0.09,
4104,0.2,
4105,0.47,
4106,0.68,
4107,0.78,
4108,0.76,
4109,0.64,
4110,0.47,
4111,0.26,
4112,0.07,
4113,-0.09,
4114,-0.2,
4115,-0.24,
4116,-0.19,
4117,0.01,
4118,0.36,
4119,0.84,
4120,1.36,
4121,1.73,
4122,1.79,
4123,1.48,
4124,0.86,
4125,0.15,
4126,-0.42,
4127,-0.67,
4128,-0.58,
4129,-0.25,
4130,0.11,
4131,0.36,
4132,0.42,
4133,0.29,
4134,0.04,
4135,-0.26,
4136,-0.56,
4137,-0.81,
4138,-0.99,
4139,-1.09,
4140,-1.08,
4141,-0.98,
4142,-0.83,
4143,-0.67,
4144,-0.55,
4145,-0.49,
4146,-0.51,
4147,-0.58,
4148,-0.66,
4149,-0.75,
4150,-0.82,
4151,-0.9,
4152,-0.98,
4153,-1.05,
4154,-1.07,
4155,-0.96,
4156,-0.68,
4157,-0.24,
4158,0.32,
4159,0.89,
4160,1.42,
4161,1.9,
4162,2.33,
4163,2.77,
4164,3.21,
4165,3.62,
4166,3.93,
4167,4.09,
4168,4.12,
4169,4.04,
4170,3.95,
4171,3.91,
4172,3.99,
4173,4.24,
4174,4.69,
4175,5.33,
4176,6.08,
4177,6.81,
4178,7.34,
4179,7.52,
4180,7.28,
4181,6.7,
4182,5.98,
4183,5.36,
4184,5.01,
4185,5.01,
4186,5.21,
4187,5.41,
4188,5.33,
4189,4.8,
4190,3.77,
4191,2.36,
4192,0.82,
4193,-0.6,
4194,-1.68,
4195,-2.33,
4196,-2.58,
4197,-2.58,
4198,-2.56,
4199,-2.74,
4200,-3.26,
4201,-4.29,
4202,-5.88,
4203,-8.04,
4204,-10.71,
4205,-13.7,
4206,-16.76,
4207,-19.57,
4208,-21.89,
4209,-23.61,
4210,-24.76,
4211,-25.5,
4212,-25.96,
4213,-26.2,
4214,-26.11,
4215,-25.5,
4216,-24.16,
4217,-21.95,
4218,-18.94,
4219,-15.32,
4220,-11.34,
4221,-7.23,
4222,-3.14,
4223,0.83,
4224,4.61,
4225,8.12,
4226,11.27,
4227,13.99,
4228,16.26,
4229,18.07,
4230,19.41,
4231,20.14,
4232,20.13,
4233,19.31,
4234,17.72,
4235,15.65,
4236,13.48,
4237,11.58,
4238,10.13,
4239,9.07,
4240,8.22,
4241,7.37,
4242,6.44,
4243,5.41,
4244,4.41,
4245,3.49,
4246,2.69,
4247,1.97,
4248,1.22,
4249,0.38,
4250,-0.52,
4251,-1.37,
4252,-1.98,
4253,-2.21,
4254,-2.02,
4255,-1.53,
4256,-0.92,
4257,-0.42,
4258,-0.12,
4259,-0.03,
4260,-0.05,
4261,-0.05,
4262,0.03,
4263,0.18,
4264,0.39,
4265,0.61,
4266,0.82,
4267,1.02,
4268,1.16,
4269,1.15,
4270,0.9,
4271,0.39,
4272,-0.32,
4273,-1.09,
4274,-1.71,
4275,-2.06,
4276,-2.1,
4277,-1.89,
4278,-1.58,
4279,-1.26,
4280,-0.97,
4281,-0.71,
4282,-0.46,
4283,-0.22,
4284,-0.07,
4285,-0.07,
4286,-0.24,
4287,-0.49,
4288,-0.68,
4289,-0.66,
4290,-0.33,
4291,0.31,
4292,1.13,
4293,1.97,
4294,2.61,
4295,2.9,
4296,2.75,
4297,2.18,
4298,1.34,
4299,0.44,
4300,-0.28,
4301,-0.64,
4302,-0.58,
4303,-0.19,
4304,0.37,
4305,0.91,
4306,1.26,
4307,1.4,
4308,1.42,
4309,1.42,
4310,1.52,
4311,1.69,
4312,1.86,
4313,1.91,
4314,1.76,
4315,1.37,
4316,0.79,
4317,0.08,
4318,-0.71,
4319,-1.47,
4320,-2.08,
4321,-2.42,
4322,-2.4,
4323,-2.07,
4324,-1.6,
4325,-1.2,
4326,-1.03,
4327,-1.08,
4328,-1.23,
4329,-1.35,
4330,-1.32,
4331,-1.17,
4332,-0.95,
4333,-0.67,
4334,-0.28,
4335,0.24,
4336,0.85,
4337,1.36,
4338,1.59,
4339,1.41,
4340,0.87,
4341,0.18,
4342,-0.42,
4343,-0.77,
4344,-0.88,
4345,-0.86,
4346,-0.86,
4347,-0.92,
4348,-1.03,
4349,-1.09,
4350,-1.06,
4351,-0.92,
4352,-0.75,
4353,-0.61,
4354,-0.51,
4355,-0.47,
4356,-0.44,
4357,-0.42,
4358,-0.42,
4359,-0.4,
4360,-0.34,
4361,-0.26,
4362,-0.18,
4363,-0.18,
4364,-0.35,
4365,-0.67,
4366,-1.01,
4367,-1.21,
4368,-1.1,
4369,-0.68,
4370,-0.07,
4371,0.52,
4372,0.93,
4373,1.1,
4374,1.07,
4375,0.96,
4376,0.86,
4377,0.77,
4378,0.74,
4379,0.76,
4380,0.89,
4381,1.15,
4382,1.48,
4383,1.84,
4384,2.09,
4385,2.2,
4386,2.15,
4387,2.01,
4388,1.82,
4389,1.61,
4390,1.4,
4391,1.17,
4392,0.95,
4393,0.76,
4394,0.59,
4395,0.41,
4396,0.18,
4397,-0.18,
4398,-0.7,
4399,-1.31,
4400,-1.9,
4401,-2.29,
4402,-2.36,
4403,-2.08,
4404,-1.55,
4405,-0.92,
4406,-0.38,
4407,-0.04,
4408,0.12,
4409,0.17,
4410,0.2,
4411,0.25,
4412,0.35,
4413,0.48,
4414,0.61,
4415,0.76,
4416,0.9,
4417,1.04,
4418,1.14,
4419,1.14,
4420,1.02,
4421,0.75,
4422,0.39,
4423,-0.03,
4424,-0.41,
4425,-0.7,
4426,-0.88,
4427,-0.98,
4428,-1.09,
4429,-1.23,
4430,-1.39,
4431,-1.44,
4432,-1.26,
4433,-0.78,
4434,-0.09,
4435,0.58,
4436,1.02,
4437,1.11,
4438,0.9,
4439,0.54,
4440,0.19,
4441,-0.09,
4442,-0.31,
4443,-0.53,
4444,-0.74,
4445,-0.89,
4446,-0.89,
4447,-0.76,
4448,-0.58,
4449,-0.5,
4450,-0.59,
4451,-0.86,
4452,-1.19,
4453,-1.46,
4454,-1.62,
4455,-1.7,
4456,-1.78,
4457,-1.92,
4458,-2.12,
4459,-2.3,
4460,-2.37,
4461,-2.26,
4462,-1.97,
4463,-1.56,
4464,-1.1,
4465,-0.61,
4466,-0.09,
4467,0.51,
4468,1.18,
4469,1.86,
4470,2.41,
4471,2.7,
4472,2.67,
4473,2.37,
4474,1.96,
4475,1.64,
4476,1.51,
4477,1.56,
4478,1.67,
4479,1.73,
4480,1.7,
4481,1.67,
4482,1.77,
4483,2.02,
4484,2.36,
4485,2.61,
4486,2.55,
4487,2.09,
4488,1.32,
4489,0.46,
4490,-0.24,
4491,-0.62,
4492,-0.65,
4493,-0.46,
4494,-0.22,
4495,-0.08,
4496,-0.1,
4497,-0.21,
4498,-0.32,
4499,-0.33,
4500,-0.23,
4501,-0.08,
4502,0.02,
4503,-0.06,
4504,-0.29,
4505,-0.59,
4506,-0.79,
4507,-0.79,
4508,-0.58,
4509,-0.25,
4510,0.08,
4511,0.35,
4512,0.58,
4513,0.82,
4514,1.15,
4515,1.52,
4516,1.84,
4517,2.02,
4518,2.02,
4519,1.89,
4520,1.73,
4521,1.65,
4522,1.73,
4523,1.95,
4524,2.25,
4525,2.55,
4526,2.72,
4527,2.62,
4528,2.05,
4529,0.82,
4530,-1.24,
4531,-4.16,
4532,-7.83,
4533,-11.94,
4534,-16.03,
4535,-19.54,
4536,-21.89,
4537,-22.69,
4538,-21.77,
4539,-19.31,
4540,-15.78,
4541,-11.78,
4542,-7.84,
4543,-4.31,
4544,-1.23,
4545,1.56,
4546,4.34,
4547,7.33,
4548,10.56,
4549,13.86,
4550,16.89,
4551,19.29,
4552,20.77,
4553,21.19,
4554,20.62,
4555,19.21,
4556,17.16,
4557,14.68,
4558,11.97,
4559,9.22,
4560,6.63,
4561,4.31,
4562,2.33,
4563,0.69,
4564,-0.69,
4565,-1.8,
4566,-2.63,
4567,-3.12,
4568,-3.27,
4569,-3.17,
4570,-2.95,
4571,-2.78,
4572,-2.76,
4573,-2.88,
4574,-3.04,
4575,-3.1,
4576,-2.97,
4577,-2.67,
4578,-2.25,
4579,-1.86,
4580,-1.59,
4581,-1.47,
4582,-1.46,
4583,-1.41,
4584,-1.21,
4585,-0.8,
4586,-0.26,
4587,0.28,
4588,0.64,
4589,0.71,
4590,0.46,
4591,0.02,
4592,-0.44,
4593,-0.71,
4594,-0.69,
4595,-0.4,
4596,-0.01,
4597,0.3,
4598,0.44,
4599,0.42,
4600,0.46,
4601,0.74,
4602,1.4,
4603,2.37,
4604,3.51,
4605,4.66,
4606,5.7,
4607,6.61,
4608,7.41,
4609,8.14,
4610,8.84,
4611,9.59,
4612,10.39,
4613,11.26,
4614,12.14,
4615,12.89,
4616,13.41,
4617,13.73,
4618,14.09,
4619,14.89,
4620,16.44,
4621,18.76,
4622,21.52,
4623,24.09,
4624,25.89,
4625,26.68,
4626,26.74,
4627,26.86,
4628,27.87,
4629,30.25,
4630,33.81,
4631,37.72,
4632,40.9,
4633,42.49,
4634,42.38,
4635,41.03,
4636,39.32,
4637,37.88,
4638,36.87,
4639,36.04,
4640,35.04,
4641,33.76,
4642,31.96,
4643,28.49,
4644,20.7,
4645,5.14,
4646,-21.04,
4647,-57.96,
4648,-102.23,
4649,-147.46,
4650,-186.44,
4651,-213.63,
4652,-226.5,
4653,-225.36,
4654,-212.11,
4655,-188.98,
4656,-158.03,
4657,-121.7,
4658,-83.44,
4659,-48.0,
4660,-20.46,
4661,-4.86,
4662,-2.84,
4663,-12.29,
4664,-27.56,
4665,-41.02,
4666,-46.0,
4667,-39.93,
4668,-25.45,
4669,-8.68,
4670,4.77,
4671,13.52,
4672,20.75,
4673,31.09,
4674,46.57,
4675,64.4,
4676,79.0,
4677,86.54,
4678,87.61,
4679,87.05,
4680,89.75,
4681,96.61,
4682,103.55,
4683,104.63,
4684,95.74,
4685,77.78,
4686,55.78,
4687,35.85,
4688,22.48,
4689,16.78,
4690,17.23,
4691,21.14,
4692,25.71,
4693,28.31,
4694,27.0,
4695,20.44,
4696,8.92,
4697,-5.29,
4698,-18.68,
4699,-27.24,
4700,-28.16,
4701,-21.07,
4702,-8.01,
4703,6.94,
4704,18.95,
4705,24.46,
4706,22.42,
4707,14.94,
4708,5.96,
4709,-0.81,
4710,-3.55,
4711,-3.09,
4712,-1.69,
4713,-1.29,
4714,-2.53,
4715,-4.23,
4716,-4.95,
4717,-4.08,
4718,-2.13,
4719,-0.71,
4720,-0.98,
4721,-2.9,
4722,-5.48,
4723,-6.92,
4724,-5.9,
4725,-2.51,
4726,2.19,
4727,6.27,
4728,8.18,
4729,7.63,
4730,5.27,
4731,2.35,
4732,0.14,
4733,-1.01,
4734,-1.19,
4735,-0.81,
4736,-0.56,
4737,-0.68,
4738,-1.37,
4739,-2.43,
4740,-3.31,
4741,-3.66,
4742,-3.36,
4743,-2.59,
4744,-1.78,
4745,-1.17,
4746,-0.76,
4747,-0.53,
4748,-0.32,
4749,-0.19,
4750,-0.11,
4751,-0.07,
4752,-0.1,
4753,-0.17,
4754,-0.35,
4755,-0.57,
4756,-0.77,
4757,-0.92,
4758,-1.09,
4759,-1.37,
4760,-1.84,
4761,-2.38,
4762,-2.75,
4763,-2.79,
4764,-2.47,
4765,-2.05,
4766,-1.77,
4767,-1.67,
4768,-1.69,
4769,-1.69,
4770,-1.62,
4771,-1.58,
4772,-1.65,
4773,-1.78,
4774,-1.91,
4775,-1.93,
4776,-1.85,
4777,-1.74,
4778,-1.53,
4779,-1.09,
4780,-0.39,
4781,0.43,
4782,1.04,
4783,1.18,
4784,0.81,
4785,0.19,
4786,-0.37,
4787,-0.72,
4788,-0.96,
4789,-1.24,
4790,-1.64,
4791,-2.01,
4792,-2.16,
4793,-2.03,
4794,-1.68,
4795,-1.29,
4796,-0.97,
4797,-0.72,
4798,-0.55,
4799,-0.5,
4800,-0.64,
4801,-0.94,
4802,-1.28,
4803,-1.39,
4804,-1.23,
4805,-0.89,
4806,-0.63,
4807,-0.64,
4808,-0.95,
4809,-1.49,
4810,-2.11,
4811,-2.7,
4812,-3.11,
4813,-3.16,
4814,-2.73,
4815,-1.87,
4816,-0.91,
4817,-0.23,
4818,-0.05,
4819,-0.29,
4820,-0.69,
4821,-0.98,
4822,-1.02,
4823,-0.8,
4824,-0.35,
4825,0.3,
4826,1.13,
4827,1.97,
4828,2.64,
4829,2.98,
4830,3.0,
4831,2.85,
4832,2.71,
4833,2.66,
4834,2.67,
4835,2.76,
4836,2.97,
4837,3.36,
4838,3.89,
4839,4.32,
4840,4.41,
4841,4.08,
4842,3.48,
4843,2.88,
4844,2.5,
4845,2.32,
4846,2.22,
4847,2.08,
4848,1.95,
4849,1.94,
4850,2.06,
4851,2.29,
4852,2.45,
4853,2.47,
4854,2.29,
4855,1.89,
4856,1.31,
4857,0.66,
4858,0.12,
4859,-0.13,
4860,-0.05,
4861,0.17,
4862,0.26,
4863,-0.06,
4864,-0.79,
4865,-1.73,
4866,-2.53,
4867,-2.91,
4868,-2.79,
4869,-2.24,
4870,-1.45,
4871,-0.61,
4872,0.11,
4873,0.58,
4874,0.73,
4875,0.59,
4876,0.26,
4877,-0.13,
4878,-0.48,
4879,-0.76,
4880,-0.97,
4881,-1.1,
4882,-1.16,
4883,-1.16,
4884,-1.15,
4885,-1.12,
4886,-1.02,
4887,-0.8,
4888,-0.45,
4889,-0.08,
4890,0.13,
4891,0.07,
4892,-0.24,
4893,-0.62,
4894,-0.86,
4895,-0.85,
4896,-0.63,
4897,-0.32,
4898,-0.05,
4899,0.1,
4900,0.09,
4901,-0.06,
4902,-0.28,
4903,-0.48,
4904,-0.56,
4905,-0.47,
4906,-0.27,
4907,-0.11,
4908,-0.12,
4909,-0.35,
4910,-0.72,
4911,-1.09,
4912,-1.34,
4913,-1.45,
4914,-1.48,
4915,-1.56,
4916,-1.78,
4917,-2.19,
4918,-2.79,
4919,-3.43,
4920,-3.97,
4921,-4.19,
4922,-4.02,
4923,-3.52,
4924,-2.87,
4925,-2.25,
4926,-1.73,
4927,-1.23,
4928,-0.64,
4929,0.01,
4930,0.58,
4931,0.84,
4932,0.63,
4933,-0.01,
4934,-0.87,
4935,-1.66,
4936,-2.09,
4937,-2.04,
4938,-1.56,
4939,-0.84,
4940,-0.15,
4941,0.3,
4942,0.48,
4943,0.48,
4944,0.46,
4945,0.47,
4946,0.49,
4947,0.41,
4948,0.21,
4949,0.01,
4950,-0.01,
4951,0.24,
4952,0.68,
4953,1.08,
4954,1.23,
4955,1.1,
4956,0.81,
4957,0.57,
4958,0.47,
4959,0.54,
4960,0.72,
4961,0.99,
4962,1.38,
4963,1.89,
4964,2.39,
4965,2.76,
4966,2.88,
4967,2.77,
4968,2.57,
4969,2.45,
4970,2.48,
4971,2.6,
4972,2.71,
4973,2.69,
4974,2.5,
4975,2.14,
4976,1.72,
4977,1.34,
4978,1.11,
4979,0.99,
4980,0.89,
4981,0.65,
4982,0.21,
4983,-0.35,
4984,-0.92,
4985,-1.34,
4986,-1.58,
4987,-1.68,
4988,-1.79,
4989,-1.96,
4990,-2.19,
4991,-2.44,
4992,-2.66,
4993,-2.85,
4994,-3.02,
4995,-3.14,
4996,-3.12,
4997,-2.88,
4998,-2.36,
4999,-1.67,
5000,-0.95,
5001,-0.38,
5002,-0.0,
5003,0.17,
5004,0.23,
5005,0.29,
5006,0.39,
5007,0.55,
5008,0.74,
5009,0.94,
5010,1.16,
5011,1.39,
5012,1.58,
5013,1.64,
5014,1.45,
5015,0.99,
5016,0.36,
5017,-0.21,
5018,-0.48,
5019,-0.38,
5020,0.04,
5021,0.6,
5022,1.15,
5023,1.61,
5024,1.99,
5025,2.33,
5026,2.57,
5027,2.64,
5028,2.45,
5029,2.01,
5030,1.43,
5031,0.88,
5032,0.47,
5033,0.23,
5034,0.04,
5035,-0.25,
5036,-0.78,
5037,-1.59,
5038,-2.58,
5039,-3.54,
5040,-4.22,
5041,-4.46,
5042,-4.25,
5043,-3.73,
5044,-3.15,
5045,-2.68,
5046,-2.38,
5047,-2.18,
5048,-1.94,
5049,-1.57,
5050,-1.05,
5051,-0.43,
5052,0.2,
5053,0.79,
5054,1.35,
5055,1.95,
5056,2.65,
5057,3.47,
5058,4.32,
5059,5.03,
5060,5.4,
5061,5.35,
5062,4.94,
5063,4.36,
5064,3.85,
5065,3.63,
5066,3.7,
5067,3.93,
5068,4.17,
5069,4.3,
5070,4.29,
5071,4.19,
5072,4.02,
5073,3.79,
5074,3.42,
5075,2.87,
5076,2.14,
5077,1.33,
5078,0.59,
5079,0.06,
5080,-0.16,
5081,-0.06,
5082,0.24,
5083,0.6,
5084,0.82,
5085,0.8,
5086,0.54,
5087,0.09,
5088,-0.42,
5089,-0.89,
5090,-1.3,
5091,-1.67,
5092,-2.09,
5093,-2.61,
5094,-3.2,
5095,-3.75,
5096,-4.14,
5097,-4.34,
5098,-4.44,
5099,-4.61,
5100,-4.98,
5101,-5.51,
5102,-5.97,
5103,-6.1,
5104,-5.78,
5105,-5.08,
5106,-4.23,
5107,-3.51,
5108,-3.05,
5109,-2.81,
5110,-2.66,
5111,-2.47,
5112,-2.13,
5113,-1.62,
5114,-0.94,
5115,-0.08,
5116,0.9,
5117,1.87,
5118,2.68,
5119,3.22,
5120,3.4,
5121,3.21,
5122,2.55,
5123,1.35,
5124,-0.43,
5125,-2.64,
5126,-4.95,
5127,-6.94,
5128,-8.23,
5129,-8.72,
5130,-8.59,
5131,-8.23,
5132,-8.03,
5133,-8.2,
5134,-8.6,
5135,-8.83,
5136,-8.47,
5137,-7.26,
5138,-5.21,
5139,-2.58,
5140,0.21,
5141,2.82,
5142,5.02,
5143,6.73,
5144,8.02,
5145,8.98,
5146,9.7,
5147,10.24,
5148,10.63,
5149,10.88,
5150,10.91,
5151,10.67,
5152,10.09,
5153,9.23,
5154,8.19,
5155,7.13,
5156,6.11,
5157,5.22,
5158,4.47,
5159,3.9,
5160,3.59,
5161,3.5,
5162,3.54,
5163,3.5,
5164,3.22,
5165,2.66,
5166,1.96,
5167,1.33,
5168,0.94,
5169,0.78,
5170,0.7,
5171,0.48,
5172,-0.09,
5173,-1.11,
5174,-2.51,
5175,-4.15,
5176,-5.86,
5177,-7.46,
5178,-8.86,
5179,-10.03,
5180,-11.0,
5181,-11.77,
5182,-12.34,
5183,-12.66,
5184,-12.61,
5185,-12.11,
5186,-11.15,
5187,-9.79,
5188,-8.2,
5189,-6.52,
5190,-4.87,
5191,-3.3,
5192,-1.81,
5193,-0.43,
5194,0.85,
5195,1.96,
5196,2.91,
5197,3.74,
5198,4.59,
5199,5.55,
5200,6.58,
5201,7.48,
5202,7.97,
5203,7.86,
5204,7.17,
5205,6.15,
5206,5.17,
5207,4.49,
5208,4.17,
5209,4.07,
5210,4.03,
5211,3.94,
5212,3.85,
5213,3.89,
5214,4.14,
5215,4.59,
5216,5.12,
5217,5.61,
5218,5.92,
5219,6.05,
5220,5.96,
5221,5.68,
5222,5.2,
5223,4.51,
5224,3.6,
5225,2.53,
5226,1.42,
5227,0.42,
5228,-0.3,
5229,-0.66,
5230,-0.64,
5231,-0.37,
5232,-0.04,
5233,0.12,
5234,0.0,
5235,-0.42,
5236,-1.07,
5237,-1.75,
5238,-2.32,
5239,-2.67,
5240,-2.77,
5241,-2.7,
5242,-2.6,
5243,-2.6,
5244,-2.76,
5245,-3.06,
5246,-3.38,
5247,-3.6,
5248,-3.63,
5249,-3.48,
5250,-3.23,
5251,-2.97,
5252,-2.78,
5253,-2.64,
5254,-2.49,
5255,-2.25,
5256,-1.91,
5257,-1.53,
5258,-1.21,
5259,-1.02,
5260,-0.97,
5261,-0.98,
5262,-0.93,
5263,-0.75,
5264,-0.47,
5265,-0.14,
5266,0.11,
5267,0.25,
5268,0.22,
5269,0.04,
5270,-0.26,
5271,-0.62,
5272,-0.92,
5273,-1.06,
5274,-0.97,
5275,-0.69,
5276,-0.36,
5277,-0.21,
5278,-0.39,
5279,-0.96,
5280,-1.78,
5281,-2.61,
5282,-3.17,
5283,-3.29,
5284,-2.9,
5285,-2.11,
5286,-1.14,
5287,-0.21,
5288,0.48,
5289,0.85,
5290,0.94,
5291,0.88,
5292,0.84,
5293,0.91,
5294,1.16,
5295,1.48,
5296,1.8,
5297,1.99,
5298,2.02,
5299,1.91,
5300,1.7,
5301,1.45,
5302,1.19,
5303,0.93,
5304,0.67,
5305,0.43,
5306,0.22,
5307,0.1,
5308,0.1,
5309,0.24,
5310,0.51,
5311,0.83,
5312,1.1,
5313,1.18,
5314,1.01,
5315,0.57,
5316,-0.02,
5317,-0.57,
5318,-0.89,
5319,-0.87,
5320,-0.54,
5321,-0.05,
5322,0.41,
5323,0.71,
5324,0.81,
5325,0.79,
5326,0.8,
5327,0.91,
5328,1.14,
5329,1.44,
5330,1.73,
5331,1.96,
5332,2.16,
5333,2.4,
5334,2.71,
5335,3.04,
5336,3.24,
5337,3.12,
5338,2.58,
5339,1.67,
5340,0.61,
5341,-0.32,
5342,-0.88,
5343,-1.0,
5344,-0.78,
5345,-0.37,
5346,0.03,
5347,0.28,
5348,0.29,
5349,0.03,
5350,-0.47,
5351,-1.12,
5352,-1.76,
5353,-2.26,
5354,-2.5,
5355,-2.45,
5356,-2.18,
5357,-1.77,
5358,-1.36,
5359,-1.07,
5360,-0.98,
5361,-1.11,
5362,-1.39,
5363,-1.72,
5364,-1.93,
5365,-1.88,
5366,-1.53,
5367,-0.91,
5368,-0.17,
5369,0.54,
5370,1.06,
5371,1.28,
5372,1.2,
5373,0.84,
5374,0.36,
5375,-0.07,
5376,-0.27,
5377,-0.12,
5378,0.4,
5379,1.16,
5380,1.92,
5381,2.46,
5382,2.62,
5383,2.42,
5384,1.98,
5385,1.54,
5386,1.27,
5387,1.21,
5388,1.32,
5389,1.44,
5390,1.48,
5391,1.38,
5392,1.19,
5393,0.94,
5394,0.62,
5395,0.16,
5396,-0.48,
5397,-1.23,
5398,-1.94,
5399,-2.39,
5400,-2.44,
5401,-2.15,
5402,-1.66,
5403,-1.26,
5404,-1.11,
5405,-1.21,
5406,-1.45,
5407,-1.61,
5408,-1.56,
5409,-1.27,
5410,-0.85,
5411,-0.39,
5412,-0.01,
5413,0.25,
5414,0.39,
5415,0.37,
5416,0.19,
5417,-0.15,
5418,-0.59,
5419,-1.02,
5420,-1.34,
5421,-1.5,
5422,-1.5,
5423,-1.42,
5424,-1.26,
5425,-1.03,
5426,-0.7,
5427,-0.33,
5428,-0.07,
5429,-0.06,
5430,-0.4,
5431,-0.98,
5432,-1.55,
5433,-1.86,
5434,-1.77,
5435,-1.36,
5436,-0.89,
5437,-0.59,
5438,-0.59,
5439,-0.8,
5440,-1.02,
5441,-1.04,
5442,-0.8,
5443,-0.36,
5444,0.07,
5445,0.36,
5446,0.43,
5447,0.33,
5448,0.17,
5449,0.05,
5450,-0.01,
5451,-0.04,
5452,-0.07,
5453,-0.09,
5454,-0.04,
5455,0.12,
5456,0.39,
5457,0.7,
5458,0.92,
5459,0.95,
5460,0.79,
5461,0.55,
5462,0.41,
5463,0.49,
5464,0.81,
5465,1.24,
5466,1.64,
5467,1.85,
5468,1.83,
5469,1.67,
5470,1.52,
5471,1.53,
5472,1.73,
5473,2.08,
5474,2.42,
5475,2.62,
5476,2.62,
5477,2.42,
5478,2.12,
5479,1.84,
5480,1.63,
5481,1.52,
5482,1.45,
5483,1.35,
5484,1.15,
5485,0.8,
5486,0.31,
5487,-0.27,
5488,-0.83,
5489,-1.25,
5490,-1.44,
5491,-1.36,
5492,-1.07,
5493,-0.7,
5494,-0.39,
5495,-0.26,
5496,-0.3,
5497,-0.45,
5498,-0.59,
5499,-0.67,
5500,-0.7,
5501,-0.73,
5502,-0.78,
5503,-0.81,
5504,-0.72,
5505,-0.44,
5506,0.02,
5507,0.48,
5508,0.74,
5509,0.65,
5510,0.23,
5511,-0.34,
5512,-0.81,
5513,-1.04,
5514,-1.0,
5515,-0.86,
5516,-0.76,
5517,-0.83,
5518,-1.07,
5519,-1.4,
5520,-1.71,
5521,-1.93,
5522,-2.07,
5523,-2.12,
5524,-2.09,
5525,-1.96,
5526,-1.67,
5527,-1.21,
5528,-0.61,
5529,-0.01,
5530,0.45,
5531,0.62,
5532,0.48,
5533,0.14,
5534,-0.18,
5535,-0.24,
5536,0.1,
5537,0.77,
5538,1.5,
5539,1.99,
5540,2.01,
5541,1.55,
5542,0.82,
5543,0.09,
5544,-0.39,
5545,-0.57,
5546,-0.54,
5547,-0.42,
5548,-0.3,
5549,-0.19,
5550,-0.05,
5551,0.1,
5552,0.21,
5553,0.23,
5554,0.16,
5555,0.1,
5556,0.21,
5557,0.59,
5558,1.19,
5559,1.83,
5560,2.27,
5561,2.36,
5562,2.09,
5563,1.58,
5564,1.04,
5565,0.65,
5566,0.49,
5567,0.59,
5568,0.9,
5569,1.29,
5570,1.62,
5571,1.77,
5572,1.65,
5573,1.28,
5574,0.73,
5575,0.12,
5576,-0.38,
5577,-0.66,
5578,-0.63,
5579,-0.34,
5580,0.11,
5581,0.57,
5582,0.86,
5583,0.86,
5584,0.56,
5585,0.01,
5586,-0.67,
5587,-1.37,
5588,-1.97,
5589,-2.43,
5590,-2.69,
5591,-2.72,
5592,-2.52,
5593,-2.14,
5594,-1.7,
5595,-1.33,
5596,-1.1,
5597,-1.02,
5598,-1.03,
5599,-1.02,
5600,-0.9,
5601,-0.7,
5602,-0.47,
5603,-0.28,
5604,-0.16,
5605,-0.12,
5606,-0.07,
5607,0.0,
5608,0.09,
5609,0.09,
5610,-0.03,
5611,-0.29,
5612,-0.63,
5613,-0.93,
5614,-1.07,
5615,-0.95,
5616,-0.63,
5617,-0.19,
5618,0.25,
5619,0.54,
5620,0.61,
5621,0.45,
5622,0.15,
5623,-0.17,
5624,-0.33,
5625,-0.23,
5626,0.15,
5627,0.7,
5628,1.22,
5629,1.51,
5630,1.44,
5631,1.03,
5632,0.42,
5633,-0.19,
5634,-0.63,
5635,-0.82,
5636,-0.81,
5637,-0.68,
5638,-0.5,
5639,-0.32,
5640,-0.11,
5641,0.12,
5642,0.32,
5643,0.38,
5644,0.21,
5645,-0.19,
5646,-0.7,
5647,-1.11,
5648,-1.21,
5649,-0.91,
5650,-0.3,
5651,0.42,
5652,0.95,
5653,1.13,
5654,0.93,
5655,0.46,
5656,-0.05,
5657,-0.4,
5658,-0.49,
5659,-0.28,
5660,0.16,
5661,0.73,
5662,1.33,
5663,1.88,
5664,2.3,
5665,2.55,
5666,2.59,
5667,2.41,
5668,2.02,
5669,1.45,
5670,0.79,
5671,0.17,
5672,-0.29,
5673,-0.5,
5674,-0.48,
5675,-0.31,
5676,-0.15,
5677,-0.1,
5678,-0.23,
5679,-0.52,
5680,-0.93,
5681,-1.39,
5682,-1.86,
5683,-2.27,
5684,-2.52,
5685,-2.51,
5686,-2.23,
5687,-1.72,
5688,-1.11,
5689,-0.53,
5690,-0.09,
5691,0.17,
5692,0.27,
5693,0.28,
5694,0.3,
5695,0.43,
5696,0.75,
5697,1.22,
5698,1.7,
5699,2.0,
5700,1.93,
5701,1.47,
5702,0.72,
5703,-0.07,
5704,-0.63,
5705,-0.81,
5706,-0.64,
5707,-0.28,
5708,0.06,
5709,0.2,
5710,0.12,
5711,-0.13,
5712,-0.43,
5713,-0.69,
5714,-0.88,
5715,-1.03,
5716,-1.18,
5717,-1.29,
5718,-1.32,
5719,-1.12,
5720,-0.67,
5721,0.02,
5722,0.78,
5723,1.38,
5724,1.67,
5725,1.62,
5726,1.34,
5727,1.01,
5728,0.82,
5729,0.83,
5730,1.0,
5731,1.21,
5732,1.36,
5733,1.38,
5734,1.25,
5735,0.98,
5736,0.6,
5737,0.13,
5738,-0.36,
5739,-0.78,
5740,-0.99,
5741,-0.92,
5742,-0.54,
5743,0.05,
5744,0.67,
5745,1.14,
5746,1.29,
5747,1.08,
5748,0.57,
5749,-0.11,
5750,-0.81,
5751,-1.33,
5752,-1.58,
5753,-1.55,
5754,-1.28,
5755,-0.91,
5756,-0.57,
5757,-0.35,
5758,-0.26,
5759,-0.29,
5760,-0.39,
5761,-0.53,
5762,-0.75,
5763,-1.01,
5764,-1.29,
5765,-1.46,
5766,-1.44,
5767,-1.21,
5768,-0.83,
5769,-0.45,
5770,-0.19,
5771,-0.11,
5772,-0.13,
5773,-0.15,
5774,-0.06,
5775,0.17,
5776,0.45,
5777,0.69,
5778,0.83,
5779,0.83,
5780,0.75,
5781,0.62,
5782,0.5,
5783,0.38,
5784,0.26,
5785,0.11,
5786,-0.04,
5787,-0.16,
5788,-0.17,
5789,-0.05,
5790,0.18,
5791,0.42,
5792,0.49,
5793,0.3,
5794,-0.18,
5795,-0.78,
5796,-1.27,
5797,-1.41,
5798,-1.11,
5799,-0.46,
5800,0.36,
5801,1.12,
5802,1.66,
5803,1.94,
5804,2.04,
5805,2.04,
5806,2.0,
5807,1.92,
5808,1.77,
5809,1.57,
5810,1.34,
5811,1.19,
5812,1.13,
5813,1.19,
5814,1.28,
5815,1.31,
5816,1.18,
5817,0.92,
5818,0.64,
5819,0.44,
5820,0.42,
5821,0.48,
5822,0.45,
5823,0.15,
5824,-0.48,
5825,-1.28,
5826,-2.0,
5827,-2.4,
5828,-2.44,
5829,-2.23,
5830,-1.99,
5831,-1.86,
5832,-1.82,
5833,-1.72,
5834,-1.46,
5835,-1.01,
5836,-0.51,
5837,-0.12,
5838,0.05,
5839,0.07,
5840,0.02,
5841,0.04,
5842,0.11,
5843,0.16,
5844,0.05,
5845,-0.26,
5846,-0.71,
5847,-1.16,
5848,-1.44,
5849,-1.43,
5850,-1.12,
5851,-0.63,
5852,-0.08,
5853,0.36,
5854,0.63,
5855,0.71,
5856,0.63,
5857,0.47,
5858,0.27,
5859,0.1,
5860,-0.05,
5861,-0.15,
5862,-0.23,
5863,-0.32,
5864,-0.49,
5865,-0.8,
5866,-1.23,
5867,-1.68,
5868,-1.95,
5869,-1.88,
5870,-1.41,
5871,-0.67,
5872,0.09,
5873,0.61,
5874,0.72,
5875,0.45,
5876,0.04,
5877,-0.23,
5878,-0.16,
5879,0.28,
5880,0.93,
5881,1.54,
5882,1.87,
5883,1.82,
5884,1.41,
5885,0.8,
5886,0.2,
5887,-0.21,
5888,-0.34,
5889,-0.17,
5890,0.18,
5891,0.54,
5892,0.77,
5893,0.77,
5894,0.55,
5895,0.23,
5896,-0.01,
5897,-0.03,
5898,0.27,
5899,0.82,
5900,1.48,
5901,2.05,
5902,2.36,
5903,2.37,
5904,2.08,
5905,1.63,
5906,1.14,
5907,0.71,
5908,0.38,
5909,0.11,
5910,-0.16,
5911,-0.48,
5912,-0.86,
5913,-1.27,
5914,-1.63,
5915,-1.86,
5916,-1.94,
5917,-1.86,
5918,-1.68,
5919,-1.41,
5920,-1.06,
5921,-0.6,
5922,-0.03,
5923,0.59,
5924,1.1,
5925,1.36,
5926,1.26,
5927,0.85,
5928,0.28,
5929,-0.25,
5930,-0.57,
5931,-0.68,
5932,-0.66,
5933,-0.66,
5934,-0.79,
5935,-1.04,
5936,-1.38,
5937,-1.69,
5938,-1.89,
5939,-1.92,
5940,-1.76,
5941,-1.43,
5942,-0.98,
5943,-0.5,
5944,-0.08,
5945,0.24,
5946,0.46,
5947,0.6,
5948,0.69,
5949,0.77,
5950,0.83,
5951,0.88,
5952,0.92,
5953,0.97,
5954,1.05,
5955,1.16,
5956,1.25,
5957,1.27,
5958,1.14,
5959,0.84,
5960,0.44,
5961,0.07,
5962,-0.12,
5963,-0.08,
5964,0.17,
5965,0.51,
5966,0.79,
5967,0.91,
5968,0.93,
5969,0.95,
5970,1.12,
5971,1.44,
5972,1.8,
5973,2.02,
5974,1.94,
5975,1.55,
5976,0.97,
5977,0.34,
5978,-0.19,
5979,-0.6,
5980,-0.87,
5981,-1.01,
5982,-1.02,
5983,-0.92,
5984,-0.78,
5985,-0.69,
5986,-0.71,
5987,-0.87,
5988,-1.06,
5989,-1.17,
5990,-1.11,
5991,-0.92,
5992,-0.7,
5993,-0.58,
5994,-0.58,
5995,-0.67,
5996,-0.74,
5997,-0.68,
5998,-0.43,
5999,-0.01,
6000,0.52,
6001,1.03,
6002,1.39,
6003,1.48,
6004,1.24,
6005,0.71,
6006,0.03,
6007,-0.6,
6008,-1.06,
6009,-1.34,
6010,-1.5,
6011,-1.64,
6012,-1.8,
6013,-1.94,
6014,-1.98,
6015,-1.85,
6016,-1.58,
6017,-1.25,
6018,-0.97,
6019,-0.77,
6020,-0.62,
6021,-0.44,
6022,-0.2,
6023,0.07,
6024,0.26,
6025,0.27,
6026,0.04,
6027,-0.37,
6028,-0.82,
6029,-1.13,
6030,-1.17,
6031,-0.9,
6032,-0.4,
6033,0.18,
6034,0.73,
6035,1.15,
6036,1.39,
6037,1.49,
6038,1.46,
6039,1.37,
6040,1.27,
6041,1.18,
6042,1.13,
6043,1.13,
6044,1.17,
6045,1.27,
6046,1.48,
6047,1.79,
6048,2.22,
6049,2.66,
6050,2.96,
6051,2.94,
6052,2.49,
6053,1.66,
6054,0.62,
6055,-0.33,
6056,-0.93,
6057,-1.05,
6058,-0.7,
6059,-0.07,
6060,0.6,
6061,1.1,
6062,1.31,
6063,1.22,
6064,0.93,
6065,0.61,
6066,0.4,
6067,0.41,
6068,0.61,
6069,0.92,
6070,1.19,
6071,1.28,
6072,1.14,
6073,0.77,
6074,0.27,
6075,-0.27,
6076,-0.73,
6077,-0.99,
6078,-0.98,
6079,-0.7,
6080,-0.23,
6081,0.26,
6082,0.61,
6083,0.68,
6084,0.47,
6085,0.06,
6086,-0.38,
6087,-0.74,
6088,-0.96,
6089,-1.11,
6090,-1.25,
6091,-1.46,
6092,-1.76,
6093,-2.12,
6094,-2.45,
6095,-2.65,
6096,-2.67,
6097,-2.51,
6098,-2.22,
6099,-1.94,
6100,-1.76,
6101,-1.74,
6102,-1.83,
6103,-1.92,
6104,-1.85,
6105,-1.59,
6106,-1.16,
6107,-0.68,
6108,-0.25,
6109,0.13,
6110,0.5,
6111,0.94,
6112,1.43,
6113,1.88,
6114,2.16,
6115,2.19,
6116,2.01,
6117,1.77,
6118,1.63,
6119,1.66,
6120,1.79,
6121,1.8,
6122,1.52,
6123,0.91,
6124,0.12,
6125,-0.57,
6126,-0.89,
6127,-0.66,
6128,0.05,
6129,1.03,
6130,1.94,
6131,2.45,
6132,2.42,
6133,1.83,
6134,0.88,
6135,-0.17,
6136,-1.05,
6137,-1.62,
6138,-1.85,
6139,-1.83,
6140,-1.71,
6141,-1.56,
6142,-1.43,
6143,-1.27,
6144,-1.07,
6145,-0.86,
6146,-0.67,
6147,-0.52,
6148,-0.41,
6149,-0.29,
6150,-0.13,
6151,0.09,
6152,0.34,
6153,0.59,
6154,0.81,
6155,0.97,
6156,1.07,
6157,1.11,
6158,1.07,
6159,0.97,
6160,0.83,
6161,0.68,
6162,0.53,
6163,0.41,
6164,0.33,
6165,0.26,
6166,0.2,
6167,0.12,
6168,-0.03,
6169,-0.25,
6170,-0.55,
6171,-0.88,
6172,-1.17,
6173,-1.39,
6174,-1.51,
6175,-1.56,
6176,-1.54,
6177,-1.47,
6178,-1.32,
6179,-1.07,
6180,-0.78,
6181,-0.48,
6182,-0.27,
6183,-0.16,
6184,-0.11,
6185,-0.04,
6186,0.15,
6187,0.51,
6188,1.02,
6189,1.64,
6190,2.25,
6191,2.76,
6192,3.08,
6193,3.21,
6194,3.2,
6195,3.09,
6196,2.98,
6197,2.93,
6198,3.01,
6199,3.27,
6200,3.69,
6201,4.18,
6202,4.58,
6203,4.72,
6204,4.47,
6205,3.81,
6206,2.83,
6207,1.74,
6208,0.75,
6209,0.08,
6210,-0.24,
6211,-0.21,
6212,0.03,
6213,0.29,
6214,0.38,
6215,0.11,
6216,-0.59,
6217,-1.62,
6218,-2.75,
6219,-3.68,
6220,-4.14,
6221,-4.1,
6222,-3.73,
6223,-3.35,
6224,-3.26,
6225,-3.6,
6226,-4.27,
6227,-5.05,
6228,-5.72,
6229,-6.16,
6230,-6.42,
6231,-6.61,
6232,-6.84,
6233,-7.13,
6234,-7.5,
6235,-7.89,
6236,-8.31,
6237,-8.74,
6238,-9.12,
6239,-9.37,
6240,-9.46,
6241,-9.37,
6242,-9.18,
6243,-8.96,
6244,-8.74,
6245,-8.46,
6246,-8.02,
6247,-7.36,
6248,-6.49,
6249,-5.49,
6250,-4.44,
6251,-3.39,
6252,-2.27,
6253,-1.01,
6254,0.44,
6255,2.02,
6256,3.58,
6257,4.95,
6258,5.95,
6259,6.52,
6260,6.7,
6261,6.63,
6262,6.5,
6263,6.46,
6264,6.62,
6265,6.97,
6266,7.44,
6267,7.94,
6268,8.37,
6269,8.68,
6270,8.83,
6271,8.78,
6272,8.47,
6273,7.85,
6274,6.91,
6275,5.72,
6276,4.51,
6277,3.54,
6278,3.03,
6279,3.02,
6280,3.36,
6281,3.75,
6282,3.86,
6283,3.51,
6284,2.76,
6285,1.85,
6286,1.04,
6287,0.53,
6288,0.38,
6289,0.48,
6290,0.71,
6291,0.93,
6292,1.03,
6293,0.97,
6294,0.74,
6295,0.38,
6296,-0.03,
6297,-0.36,
6298,-0.48,
6299,-0.3,
6300,0.21,
6301,1.0,
6302,1.94,
6303,2.86,
6304,3.57,
6305,3.91,
6306,3.82,
6307,3.36,
6308,2.68,
6309,1.98,
6310,1.39,
6311,0.98,
6312,0.75,
6313,0.68,
6314,0.72,
6315,0.81,
6316,0.84,
6317,0.69,
6318,0.25,
6319,-0.46,
6320,-1.29,
6321,-2.02,
6322,-2.47,
6323,-2.63,
6324,-2.64,
6325,-2.71,
6326,-2.99,
6327,-3.44,
6328,-3.9,
6329,-4.17,
6330,-4.15,
6331,-3.87,
6332,-3.48,
6333,-3.09,
6334,-2.73,
6335,-2.36,
6336,-1.91,
6337,-1.39,
6338,-0.85,
6339,-0.41,
6340,-0.11,
6341,0.06,
6342,0.21,
6343,0.39,
6344,0.61,
6345,0.85,
6346,1.05,
6347,1.22,
6348,1.38,
6349,1.51,
6350,1.58,
6351,1.55,
6352,1.41,
6353,1.19,
6354,1.0,
6355,0.91,
6356,0.95,
6357,1.09,
6358,1.23,
6359,1.32,
6360,1.33,
6361,1.29,
6362,1.21,
6363,1.08,
6364,0.91,
6365,0.71,
6366,0.53,
6367,0.41,
6368,0.37,
6369,0.39,
6370,0.41,
6371,0.37,
6372,0.25,
6373,0.05,
6374,-0.17,
6375,-0.39,
6376,-0.63,
6377,-0.95,
6378,-1.41,
6379,-2.04,
6380,-2.76,
6381,-3.42,
6382,-3.82,
6383,-3.8,
6384,-3.34,
6385,-2.55,
6386,-1.65,
6387,-0.87,
6388,-0.38,
6389,-0.17,
6390,-0.18,
6391,-0.3,
6392,-0.43,
6393,-0.54,
6394,-0.58,
6395,-0.52,
6396,-0.32,
6397,0.06,
6398,0.59,
6399,1.13,
6400,1.5,
6401,1.57,
6402,1.28,
6403,0.73,
6404,0.11,
6405,-0.35,
6406,-0.56,
6407,-0.53,
6408,-0.41,
6409,-0.38,
6410,-0.55,
6411,-0.91,
6412,-1.34,
6413,-1.67,
6414,-1.79,
6415,-1.67,
6416,-1.38,
6417,-1.0,
6418,-0.63,
6419,-0.25,
6420,0.15,
6421,0.61,
6422,1.09,
6423,1.54,
6424,1.88,
6425,2.05,
6426,2.06,
6427,1.96,
6428,1.79,
6429,1.6,
6430,1.46,
6431,1.38,
6432,1.37,
6433,1.39,
6434,1.38,
6435,1.24,
6436,0.95,
6437,0.57,
6438,0.2,
6439,-0.05,
6440,-0.12,
6441,-0.06,
6442,0.02,
6443,-0.02,
6444,-0.26,
6445,-0.69,
6446,-1.22,
6447,-1.71,
6448,-2.03,
6449,-2.09,
6450,-1.87,
6451,-1.46,
6452,-1.0,
6453,-0.68,
6454,-0.55,
6455,-0.65,
6456,-0.83,
6457,-0.98,
6458,-1.03,
6459,-0.98,
6460,-0.88,
6461,-0.77,
6462,-0.66,
6463,-0.49,
6464,-0.25,
6465,0.02,
6466,0.22,
6467,0.27,
6468,0.16,
6469,0.0,
6470,-0.07,
6471,0.02,
6472,0.23,
6473,0.44,
6474,0.51,
6475,0.41,
6476,0.18,
6477,-0.05,
6478,-0.16,
6479,-0.11,
6480,0.02,
6481,0.13,
6482,0.16,
6483,0.08,
6484,-0.08,
6485,-0.25,
6486,-0.41,
6487,-0.53,
6488,-0.6,
6489,-0.58,
6490,-0.4,
6491,-0.07,
6492,0.41,
6493,0.89,
6494,1.26,
6495,1.39,
6496,1.27,
6497,0.97,
6498,0.65,
6499,0.48,
6500,0.51,
6501,0.77,
6502,1.17,
6503,1.64,
6504,2.06,
6505,2.35,
6506,2.45,
6507,2.35,
6508,2.11,
6509,1.85,
6510,1.73,
6511,1.79,
6512,1.99,
6513,2.16,
6514,2.15,
6515,1.83,
6516,1.26,
6517,0.59,
6518,-0.01,
6519,-0.47,
6520,-0.81,
6521,-1.1,
6522,-1.4,
6523,-1.66,
6524,-1.79,
6525,-1.73,
6526,-1.5,
6527,-1.3,
6528,-1.32,
6529,-1.68,
6530,-2.32,
6531,-2.98,
6532,-3.38,
6533,-3.32,
6534,-2.84,
6535,-2.17,
6536,-1.64,
6537,-1.49,
6538,-1.71,
6539,-2.09,
6540,-2.33,
6541,-2.19,
6542,-1.62,
6543,-0.83,
6544,-0.05,
6545,0.52,
6546,0.86,
6547,1.08,
6548,1.3,
6549,1.55,
6550,1.71,
6551,1.61,
6552,1.17,
6553,0.52,
6554,-0.13,
6555,-0.56,
6556,-0.66,
6557,-0.53,
6558,-0.36,
6559,-0.3,
6560,-0.34,
6561,-0.38,
6562,-0.31,
6563,-0.1,
6564,0.15,
6565,0.31,
6566,0.31,
6567,0.24,
6568,0.22,
6569,0.39,
6570,0.73,
6571,1.12,
6572,1.35,
6573,1.29,
6574,0.97,
6575,0.49,
6576,0.04,
6577,-0.24,
6578,-0.31,
6579,-0.19,
6580,0.05,
6581,0.36,
6582,0.74,
6583,1.2,
6584,1.73,
6585,2.24,
6586,2.59,
6587,2.62,
6588,2.25,
6589,1.54,
6590,0.69,
6591,-0.03,
6592,-0.37,
6593,-0.23,
6594,0.34,
6595,1.14,
6596,1.94,
6597,2.53,
6598,2.75,
6599,2.57,
6600,2.01,
6601,1.22,
6602,0.39,
6603,-0.27,
6604,-0.6,
6605,-0.57,
6606,-0.26,
6607,0.16,
6608,0.54,
6609,0.74,
6610,0.71,
6611,0.46,
6612,-0.01,
6613,-0.63,
6614,-1.31,
6615,-1.94,
6616,-2.35,
6617,-2.43,
6618,-2.13,
6619,-1.52,
6620,-0.82,
6621,-0.27,
6622,-0.03,
6623,-0.11,
6624,-0.39,
6625,-0.64,
6626,-0.68,
6627,-0.46,
6628,-0.03,
6629,0.45,
6630,0.85,
6631,1.07,
6632,1.05,
6633,0.79,
6634,0.32,
6635,-0.31,
6636,-1.0,
6637,-1.64,
6638,-2.07,
6639,-2.18,
6640,-1.94,
6641,-1.45,
6642,-0.85,
6643,-0.35,
6644,-0.09,
6645,-0.15,
6646,-0.5,
6647,-1.01,
6648,-1.51,
6649,-1.88,
6650,-2.07,
6651,-2.09,
6652,-2.0,
6653,-1.83,
6654,-1.57,
6655,-1.24,
6656,-0.85,
6657,-0.54,
6658,-0.46,
6659,-0.75,
6660,-1.43,
6661,-2.35,
6662,-3.27,
6663,-3.88,
6664,-4.01,
6665,-3.61,
6666,-2.86,
6667,-2.04,
6668,-1.36,
6669,-0.9,
6670,-0.58,
6671,-0.24,
6672,0.24,
6673,0.8,
6674,1.31,
6675,1.61,
6676,1.64,
6677,1.51,
6678,1.39,
6679,1.47,
6680,1.79,
6681,2.28,
6682,2.78,
6683,3.16,
6684,3.34,
6685,3.33,
6686,3.17,
6687,2.89,
6688,2.49,
6689,1.93,
6690,1.26,
6691,0.54,
6692,-0.06,
6693,-0.4,
6694,-0.43,
6695,-0.21,
6696,0.09,
6697,0.3,
6698,0.3,
6699,0.1,
6700,-0.2,
6701,-0.48,
6702,-0.68,
6703,-0.81,
6704,-0.89,
6705,-0.94,
6706,-0.89,
6707,-0.67,
6708,-0.25,
6709,0.33,
6710,0.9,
6711,1.31,
6712,1.44,
6713,1.3,
6714,0.94,
6715,0.5,
6716,0.11,
6717,-0.14,
6718,-0.18,
6719,0.01,
6720,0.37,
6721,0.8,
6722,1.17,
6723,1.36,
6724,1.3,
6725,0.97,
6726,0.44,
6727,-0.17,
6728,-0.72,
6729,-1.09,
6730,-1.21,
6731,-1.13,
6732,-0.96,
6733,-0.87,
6734,-0.99,
6735,-1.32,
6736,-1.77,
6737,-2.14,
6738,-2.25,
6739,-2.01,
6740,-1.49,
6741,-0.84,
6742,-0.24,
6743,0.22,
6744,0.48,
6745,0.53,
6746,0.37,
6747,0.01,
6748,-0.5,
6749,-1.06,
6750,-1.51,
6751,-1.7,
6752,-1.61,
6753,-1.23,
6754,-0.71,
6755,-0.1,
6756,0.54,
6757,1.19,
6758,1.85,
6759,2.44,
6760,2.85,
6761,2.96,
6762,2.69,
6763,2.14,
6764,1.45,
6765,0.86,
6766,0.55,
6767,0.58,
6768,0.9,
6769,1.39,
6770,1.91,
6771,2.35,
6772,2.61,
6773,2.65,
6774,2.44,
6775,1.99,
6776,1.37,
6777,0.7,
6778,0.13,
6779,-0.21,
6780,-0.26,
6781,-0.04,
6782,0.3,
6783,0.56,
6784,0.55,
6785,0.2,
6786,-0.44,
6787,-1.24,
6788,-1.99,
6789,-2.56,
6790,-2.88,
6791,-2.95,
6792,-2.79,
6793,-2.46,
6794,-1.99,
6795,-1.44,
6796,-0.82,
6797,-0.22,
6798,0.27,
6799,0.56,
6800,0.6,
6801,0.43,
6802,0.13,
6803,-0.18,
6804,-0.39,
6805,-0.45,
6806,-0.33,
6807,-0.11,
6808,0.14,
6809,0.33,
6810,0.43,
6811,0.43,
6812,0.44,
6813,0.53,
6814,0.76,
6815,1.15,
6816,1.6,
6817,2.01,
6818,2.26,
6819,2.28,
6820,2.01,
6821,1.49,
6822,0.76,
6823,-0.05,
6824,-0.79,
6825,-1.31,
6826,-1.48,
6827,-1.3,
6828,-0.87,
6829,-0.33,
6830,0.18,
6831,0.57,
6832,0.84,
6833,0.98,
6834,1.0,
6835,0.89,
6836,0.69,
6837,0.47,
6838,0.36,
6839,0.45,
6840,0.76,
6841,1.17,
6842,1.49,
6843,1.55,
6844,1.27,
6845,0.69,
6846,-0.03,
6847,-0.74,
6848,-1.27,
6849,-1.59,
6850,-1.73,
6851,-1.8,
6852,-1.94,
6853,-2.21,
6854,-2.62,
6855,-3.03,
6856,-3.29,
6857,-3.29,
6858,-3.02,
6859,-2.55,
6860,-1.99,
6861,-1.43,
6862,-0.88,
6863,-0.34,
6864,0.19,
6865,0.65,
6866,0.95,
6867,1.04,
6868,0.87,
6869,0.54,
6870,0.18,
6871,-0.06,
6872,-0.07,
6873,0.18,
6874,0.6,
6875,1.01,
6876,1.26,
6877,1.2,
6878,0.82,
6879,0.22,
6880,-0.36,
6881,-0.72,
6882,-0.73,
6883,-0.43,
6884,0.05,
6885,0.49,
6886,0.74,
6887,0.75,
6888,0.55,
6889,0.24,
6890,-0.11,
6891,-0.48,
6892,-0.85,
6893,-1.18,
6894,-1.37,
6895,-1.28,
6896,-0.8,
6897,0.03,
6898,1.04,
6899,1.94,
6900,2.5,
6901,2.6,
6902,2.34,
6903,1.92,
6904,1.58,
6905,1.46,
6906,1.58,
6907,1.84,
6908,2.11,
6909,2.3,
6910,2.37,
6911,2.31,
6912,2.11,
6913,1.76,
6914,1.27,
6915,0.73,
6916,0.24,
6917,-0.1,
6918,-0.31,
6919,-0.44,
6920,-0.54,
6921,-0.63,
6922,-0.67,
6923,-0.66,
6924,-0.64,
6925,-0.7,
6926,-0.89,
6927,-1.19,
6928,-1.46,
6929,-1.55,
6930,-1.38,
6931,-1.01,
6932,-0.61,
6933,-0.4,
6934,-0.54,
6935,-1.01,
6936,-1.71,
6937,-2.45,
6938,-3.06,
6939,-3.41,
6940,-3.49,
6941,-3.31,
6942,-2.96,
6943,-2.52,
6944,-2.03,
6945,-1.48,
6946,-0.8,
6947,0.03,
6948,0.93,
6949,1.79,
6950,2.44,
6951,2.77,
6952,2.76,
6953,2.5,
6954,2.1,
6955,1.68,
6956,1.33,
6957,1.09,
6958,0.98,
6959,0.98,
6960,1.05,
6961,1.11,
6962,1.1,
6963,0.99,
6964,0.8,
6965,0.59,
6966,0.4,
6967,0.2,
6968,-0.09,
6969,-0.55,
6970,-1.19,
6971,-1.89,
6972,-2.47,
6973,-2.76,
6974,-2.63,
6975,-2.18,
6976,-1.52,
6977,-0.85,
6978,-0.28,
6979,0.14,
6980,0.39,
6981,0.49,
6982,0.44,
6983,0.31,
6984,0.2,
6985,0.24,
6986,0.52,
6987,1.0,
6988,1.54,
6989,1.92,
6990,2.02,
6991,1.82,
6992,1.42,
6993,0.94,
6994,0.49,
6995,0.09,
6996,-0.27,
6997,-0.62,
6998,-0.94,
6999,-1.24,
7000,-1.54,
7001,-1.86,
7002,-2.18,
7003,-2.41,
7004,-2.43,
7005,-2.16,
7006,-1.61,
7007,-0.95,
7008,-0.37,
7009,-0.05,
7010,0.01,
7011,-0.08,
7012,-0.15,
7013,-0.11,
7014,0.03,
7015,0.15,
7016,0.17,
7017,0.06,
7018,-0.09,
7019,-0.16,
7020,-0.08,
7021,0.2,
7022,0.59,
7023,1.01,
7024,1.37,
7025,1.61,
7026,1.7,
7027,1.63,
7028,1.38,
7029,0.98,
7030,0.44,
7031,-0.13,
7032,-0.59,
7033,-0.88,
7034,-0.97,
7035,-0.91,
7036,-0.75,
7037,-0.56,
7038,-0.34,
7039,-0.13,
7040,0.08,
7041,0.25,
7042,0.35,
7043,0.37,
7044,0.34,
7045,0.34,
7046,0.44,
7047,0.7,
7048,1.05,
7049,1.42,
7050,1.68,
7051,1.78,
7052,1.69,
7053,1.44,
7054,1.07,
7055,0.64,
7056,0.25,
7057,-0.05,
7058,-0.19,
7059,-0.17,
7060,-0.06,
7061,0.04,
7062,0.01,
7063,-0.18,
7064,-0.55,
7065,-0.97,
7066,-1.33,
7067,-1.48,
7068,-1.42,
7069,-1.19,
7070,-0.9,
7071,-0.67,
7072,-0.56,
7073,-0.52,
7074,-0.46,
7075,-0.32,
7076,-0.06,
7077,0.25,
7078,0.49,
7079,0.52,
7080,0.3,
7081,-0.13,
7082,-0.61,
7083,-0.97,
7084,-1.13,
7085,-1.08,
7086,-0.93,
7087,-0.8,
7088,-0.76,
7089,-0.78,
7090,-0.78,
7091,-0.66,
7092,-0.38,
7093,0.01,
7094,0.4,
7095,0.66,
7096,0.8,
7097,0.84,
7098,0.89,
7099,1.0,
7100,1.15,
7101,1.29,
7102,1.33,
7103,1.27,
7104,1.13,
7105,0.95,
7106,0.76,
7107,0.58,
7108,0.39,
7109,0.18,
7110,-0.0,
7111,-0.08,
7112,0.04,
7113,0.38,
7114,0.9,
7115,1.48,
7116,1.96,
7117,2.17,
7118,2.02,
7119,1.47,
7120,0.68,
7121,-0.15,
7122,-0.79,
7123,-1.15,
7124,-1.29,
7125,-1.38,
7126,-1.55,
7127,-1.81,
7128,-2.06,
7129,-2.11,
7130,-1.92,
7131,-1.54,
7132,-1.11,
7133,-0.71,
7134,-0.33,
7135,0.13,
7136,0.73,
7137,1.4,
7138,1.96,
7139,2.23,
7140,2.13,
7141,1.75,
7142,1.29,
7143,0.97,
7144,0.83,
7145,0.83,
7146,0.85,
7147,0.74,
7148,0.45,
7149,-0.01,
7150,-0.57,
7151,-1.1,
7152,-1.49,
7153,-1.62,
7154,-1.43,
7155,-0.94,
7156,-0.26,
7157,0.45,
7158,1.01,
7159,1.28,
7160,1.21,
7161,0.87,
7162,0.42,
7163,0.02,
7164,-0.19,
7165,-0.19,
7166,-0.08,
7167,-0.04,
7168,-0.18,
7169,-0.56,
7170,-1.1,
7171,-1.68,
7172,-2.17,
7173,-2.46,
7174,-2.57,
7175,-2.46,
7176,-2.19,
7177,-1.79,
7178,-1.31,
7179,-0.86,
7180,-0.52,
7181,-0.36,
7182,-0.38,
7183,-0.54,
7184,-0.71,
7185,-0.8,
7186,-0.77,
7187,-0.62,
7188,-0.42,
7189,-0.22,
7190,-0.06,
7191,0.06,
7192,0.13,
7193,0.2,
7194,0.3,
7195,0.45,
7196,0.7,
7197,1.12,
7198,1.73,
7199,2.49,
7200,3.28,
7201,3.89,
7202,4.15,
7203,3.95,
7204,3.37,
7205,2.57,
7206,1.75,
7207,1.06,
7208,0.55,
7209,0.19,
7210,-0.09,
7211,-0.32,
7212,-0.51,
7213,-0.62,
7214,-0.7,
7215,-0.79,
7216,-0.94,
7217,-1.16,
7218,-1.41,
7219,-1.63,
7220,-1.76,
7221,-1.79,
7222,-1.77,
7223,-1.77,
7224,-1.86,
7225,-2.06,
7226,-2.38,
7227,-2.75,
7228,-3.07,
7229,-3.19,
7230,-2.96,
7231,-2.36,
7232,-1.48,
7233,-0.58,
7234,0.12,
7235,0.44,
7236,0.46,
7237,0.34,
7238,0.28,
7239,0.4,
7240,0.65,
7241,0.96,
7242,1.25,
7243,1.54,
7244,1.85,
7245,2.16,
7246,2.37,
7247,2.33,
7248,1.97,
7249,1.32,
7250,0.57,
7251,-0.11,
7252,-0.61,
7253,-0.92,
7254,-1.13,
7255,-1.27,
7256,-1.35,
7257,-1.28,
7258,-1.02,
7259,-0.55,
7260,0.04,
7261,0.67,
7262,1.27,
7263,1.8,
7264,2.26,
7265,2.59,
7266,2.78,
7267,2.71,
7268,2.36,
7269,1.77,
7270,1.1,
7271,0.53,
7272,0.2,
7273,0.14,
7274,0.25,
7275,0.33,
7276,0.22,
7277,-0.09,
7278,-0.52,
7279,-0.89,
7280,-1.06,
7281,-1.02,
7282,-0.82,
7283,-0.58,
7284,-0.33,
7285,-0.05,
7286,0.34,
7287,0.81,
7288,1.23,
7289,1.39,
7290,1.11,
7291,0.43,
7292,-0.39,
7293,-0.98,
7294,-1.06,
7295,-0.58,
7296,0.2,
7297,0.85,
7298,1.03,
7299,0.64,
7300,-0.13,
7301,-0.91,
7302,-1.36,
7303,-1.37,
7304,-1.07,
7305,-0.73,
7306,-0.54,
7307,-0.56,
7308,-0.63,
7309,-0.59,
7310,-0.29,
7311,0.22,
7312,0.78,
7313,1.19,
7314,1.3,
7315,1.1,
7316,0.68,
7317,0.21,
7318,-0.2,
7319,-0.46,
7320,-0.56,
7321,-0.51,
7322,-0.32,
7323,0.01,
7324,0.43,
7325,0.92,
7326,1.38,
7327,1.75,
7328,1.99,
7329,2.05,
7330,1.94,
7331,1.62,
7332,1.11,
7333,0.41,
7334,-0.4,
7335,-1.22,
7336,-1.89,
7337,-2.27,
7338,-2.3,
7339,-2.02,
7340,-1.54,
7341,-1.06,
7342,-0.73,
7343,-0.63,
7344,-0.75,
7345,-0.99,
7346,-1.19,
7347,-1.28,
7348,-1.25,
7349,-1.19,
7350,-1.19,
7351,-1.27,
7352,-1.33,
7353,-1.22,
7354,-0.84,
7355,-0.24,
7356,0.37,
7357,0.72,
7358,0.59,
7359,0.02,
7360,-0.79,
7361,-1.47,
7362,-1.78,
7363,-1.66,
7364,-1.23,
7365,-0.75,
7366,-0.44,
7367,-0.39,
7368,-0.55,
7369,-0.78,
7370,-0.94,
7371,-0.93,
7372,-0.77,
7373,-0.49,
7374,-0.13,
7375,0.26,
7376,0.62,
7377,0.94,
7378,1.2,
7379,1.37,
7380,1.45,
7381,1.43,
7382,1.34,
7383,1.22,
7384,1.11,
7385,1.03,
7386,0.97,
7387,0.85,
7388,0.63,
7389,0.28,
7390,-0.15,
7391,-0.53,
7392,-0.75,
7393,-0.71,
7394,-0.45,
7395,-0.09,
7396,0.25,
7397,0.42,
7398,0.4,
7399,0.21,
7400,-0.11,
7401,-0.51,
7402,-0.96,
7403,-1.42,
7404,-1.82,
7405,-2.06,
7406,-2.06,
7407,-1.76,
7408,-1.19,
7409,-0.45,
7410,0.29,
7411,0.9,
7412,1.29,
7413,1.44,
7414,1.39,
7415,1.22,
7416,1.01,
7417,0.87,
7418,0.87,
7419,1.02,
7420,1.31,
7421,1.65,
7422,1.95,
7423,2.13,
7424,2.18,
7425,2.16,
7426,2.11,
7427,2.01,
7428,1.85,
7429,1.59,
7430,1.24,
7431,0.9,
7432,0.7,
7433,0.66,
7434,0.72,
7435,0.69,
7436,0.37,
7437,-0.3,
7438,-1.18,
7439,-2.03,
7440,-2.58,
7441,-2.72,
7442,-2.56,
7443,-2.33,
7444,-2.23,
7445,-2.37,
7446,-2.66,
7447,-2.93,
7448,-3.05,
7449,-3.01,
7450,-2.89,
7451,-2.76,
7452,-2.65,
7453,-2.48,
7454,-2.16,
7455,-1.64,
7456,-1.03,
7457,-0.52,
7458,-0.28,
7459,-0.4,
7460,-0.84,
7461,-1.4,
7462,-1.89,
7463,-2.13,
7464,-2.05,
7465,-1.65,
7466,-1.0,
7467,-0.23,
7468,0.54,
7469,1.16,
7470,1.58,
7471,1.77,
7472,1.75,
7473,1.63,
7474,1.48,
7475,1.42,
7476,1.49,
7477,1.71,
7478,2.04,
7479,2.44,
7480,2.85,
7481,3.18,
7482,3.4,
7483,3.44,
7484,3.25,
7485,2.81,
7486,2.18,
7487,1.4,
7488,0.59,
7489,-0.13,
7490,-0.66,
7491,-0.9,
7492,-0.85,
7493,-0.57,
7494,-0.24,
7495,-0.02,
7496,-0.05,
7497,-0.34,
7498,-0.74,
7499,-1.06,
7500,-1.1,
7501,-0.84,
7502,-0.35,
7503,0.16,
7504,0.55,
7505,0.75,
7506,0.81,
7507,0.79,
7508,0.7,
7509,0.51,
7510,0.18,
7511,-0.26,
7512,-0.64,
7513,-0.77,
7514,-0.52,
7515,0.07,
7516,0.79,
7517,1.37,
7518,1.64,
7519,1.54,
7520,1.22,
7521,0.84,
7522,0.49,
7523,0.21,
7524,-0.08,
7525,-0.39,
7526,-0.7,
7527,-0.94,
7528,-1.04,
7529,-1.02,
7530,-0.99,
7531,-1.08,
7532,-1.34,
7533,-1.7,
7534,-1.99,
7535,-2.05,
7536,-1.82,
7537,-1.37,
7538,-0.87,
7539,-0.49,
7540,-0.33,
7541,-0.32,
7542,-0.34,
7543,-0.18,
7544,0.24,
7545,0.92,
7546,1.72,
7547,2.45,
7548,2.95,
7549,3.13,
7550,3.04,
7551,2.78,
7552,2.5,
7553,2.28,
7554,2.15,
7555,2.02,
7556,1.79,
7557,1.44,
7558,1.0,
7559,0.64,
7560,0.46,
7561,0.47,
7562,0.58,
7563,0.62,
7564,0.45,
7565,0.07,
7566,-0.4,
7567,-0.8,
7568,-1.02,
7569,-1.05,
7570,-0.97,
7571,-0.87,
7572,-0.81,
7573,-0.77,
7574,-0.73,
7575,-0.65,
7576,-0.62,
7577,-0.7,
7578,-0.94,
7579,-1.32,
7580,-1.73,
7581,-2.04,
7582,-2.14,
7583,-2.04,
7584,-1.79,
7585,-1.51,
7586,-1.3,
7587,-1.23,
7588,-1.27,
7589,-1.34,
7590,-1.36,
7591,-1.27,
7592,-1.11,
7593,-0.88,
7594,-0.65,
7595,-0.41,
7596,-0.13,
7597,0.2,
7598,0.56,
7599,0.89,
7600,1.07,
7601,1.07,
7602,0.88,
7603,0.59,
7604,0.31,
7605,0.16,
7606,0.17,
7607,0.31,
7608,0.48,
7609,0.57,
7610,0.55,
7611,0.45,
7612,0.34,
7613,0.31,
7614,0.42,
7615,0.68,
7616,1.03,
7617,1.4,
7618,1.67,
7619,1.8,
7620,1.76,
7621,1.6,
7622,1.4,
7623,1.24,
7624,1.15,
7625,1.12,
7626,1.05,
7627,0.89,
7628,0.64,
7629,0.38,
7630,0.23,
7631,0.27,
7632,0.44,
7633,0.61,
7634,0.65,
7635,0.46,
7636,0.13,
7637,-0.2,
7638,-0.41,
7639,-0.43,
7640,-0.37,
7641,-0.33,
7642,-0.44,
7643,-0.7,
7644,-1.04,
7645,-1.34,
7646,-1.52,
7647,-1.62,
7648,-1.71,
7649,-1.86,
7650,-2.08,
7651,-2.28,
7652,-2.39,
7653,-2.35,
7654,-2.18,
7655,-1.95,
7656,-1.7,
7657,-1.4,
7658,-1.03,
7659,-0.56,
7660,-0.01,
7661,0.5,
7662,0.86,
7663,1.0,
7664,1.0,
7665,1.0,
7666,1.14,
7667,1.5,
7668,1.99,
7669,2.44,
7670,2.6,
7671,2.38,
7672,1.8,
7673,1.03,
7674,0.32,
7675,-0.15,
7676,-0.29,
7677,-0.14,
7678,0.16,
7679,0.45,
7680,0.63,
7681,0.64,
7682,0.51,
7683,0.23,
7684,-0.14,
7685,-0.59,
7686,-1.05,
7687,-1.42,
7688,-1.54,
7689,-1.32,
7690,-0.72,
7691,0.11,
7692,0.92,
7693,1.47,
7694,1.55,
7695,1.2,
7696,0.61,
7697,0.04,
7698,-0.29,
7699,-0.31,
7700,-0.1,
7701,0.21,
7702,0.5,
7703,0.74,
7704,0.92,
7705,1.04,
7706,1.08,
7707,1.0,
7708,0.8,
7709,0.58,
7710,0.45,
7711,0.52,
7712,0.78,
7713,1.16,
7714,1.47,
7715,1.56,
7716,1.38,
7717,0.97,
7718,0.49,
7719,0.07,
7720,-0.17,
7721,-0.19,
7722,-0.04,
7723,0.17,
7724,0.31,
7725,0.24,
7726,-0.11,
7727,-0.71,
7728,-1.45,
7729,-2.15,
7730,-2.68,
7731,-2.91,
7732,-2.81,
7733,-2.43,
7734,-1.85,
7735,-1.16,
7736,-0.49,
7737,0.03,
7738,0.29,
7739,0.27,
7740,0.04,
7741,-0.26,
7742,-0.48,
7743,-0.54,
7744,-0.43,
7745,-0.24,
7746,-0.06,
7747,0.04,
7748,0.05,
7749,0.01,
7750,-0.03,
7751,-0.04,
7752,0.01,
7753,0.11,
7754,0.24,
7755,0.36,
7756,0.44,
7757,0.41,
7758,0.26,
7759,-0.04,
7760,-0.4,
7761,-0.71,
7762,-0.86,
7763,-0.74,
7764,-0.3,
7765,0.38,
7766,1.11,
7767,1.66,
7768,1.81,
7769,1.48,
7770,0.78,
7771,-0.08,
7772,-0.84,
7773,-1.28,
7774,-1.37,
7775,-1.2,
7776,-0.92,
7777,-0.66,
7778,-0.46,
7779,-0.28,
7780,-0.06,
7781,0.22,
7782,0.52,
7783,0.73,
7784,0.79,
7785,0.72,
7786,0.61,
7787,0.6,
7788,0.76,
7789,1.08,
7790,1.46,
7791,1.75,
7792,1.84,
7793,1.73,
7794,1.44,
7795,1.06,
7796,0.66,
7797,0.26,
7798,-0.13,
7799,-0.5,
7800,-0.81,
7801,-1.0,
7802,-1.02,
7803,-0.83,
7804,-0.49,
7805,-0.13,
7806,0.02,
7807,-0.19,
7808,-0.83,
7809,-1.76,
7810,-2.69,
7811,-3.32,
7812,-3.43,
7813,-3.04,
7814,-2.32,
7815,-1.5,
7816,-0.74,
7817,-0.04,
7818,0.58,
7819,1.12,
7820,1.48,
7821,1.56,
7822,1.33,
7823,0.92,
7824,0.51,
7825,0.24,
7826,0.13,
7827,0.08,
7828,-0.02,
7829,-0.26,
7830,-0.6,
7831,-0.96,
7832,-1.21,
7833,-1.28,
7834,-1.14,
7835,-0.76,
7836,-0.19,
7837,0.48,
7838,1.09,
7839,1.47,
7840,1.48,
7841,1.09,
7842,0.39,
7843,-0.44,
7844,-1.22,
7845,-1.79,
7846,-2.01,
7847,-1.83,
7848,-1.32,
7849,-0.64,
7850,-0.03,
7851,0.34,
7852,0.39,
7853,0.21,
7854,-0.08,
7855,-0.34,
7856,-0.54,
7857,-0.72,
7858,-0.91,
7859,-1.09,
7860,-1.19,
7861,-1.09,
7862,-0.75,
7863,-0.17,
7864,0.61,
7865,1.5,
7866,2.35,
7867,2.99,
7868,3.23,
7869,2.96,
7870,2.24,
7871,1.33,
7872,0.54,
7873,0.14,
7874,0.16,
7875,0.44,
7876,0.72,
7877,0.75,
7878,0.46,
7879,-0.1,
7880,-0.72,
7881,-1.23,
7882,-1.5,
7883,-1.46,
7884,-1.1,
7885,-0.46,
7886,0.34,
7887,1.1,
7888,1.63,
7889,1.75,
7890,1.43,
7891,0.79,
7892,0.04,
7893,-0.52,
7894,-0.76,
7895,-0.62,
7896,-0.24,
7897,0.18,
7898,0.49,
7899,0.58,
7900,0.51,
7901,0.4,
7902,0.33,
7903,0.32,
7904,0.32,
7905,0.28,
7906,0.16,
7907,0.03,
7908,0.01,
7909,0.19,
7910,0.58,
7911,1.09,
7912,1.53,
7913,1.72,
7914,1.56,
7915,1.08,
7916,0.43,
7917,-0.19,
7918,-0.65,
7919,-0.89,
7920,-0.96,
7921,-0.99,
7922,-1.06,
7923,-1.19,
7924,-1.35,
7925,-1.44,
7926,-1.4,
7927,-1.25,
7928,-1.03,
7929,-0.83,
7930,-0.71,
7931,-0.66,
7932,-0.63,
7933,-0.51,
7934,-0.24,
7935,0.18,
7936,0.68,
7937,1.11,
7938,1.32,
7939,1.21,
7940,0.77,
7941,0.12,
7942,-0.58,
7943,-1.14,
7944,-1.45,
7945,-1.49,
7946,-1.29,
7947,-0.95,
7948,-0.56,
7949,-0.19,
7950,0.09,
7951,0.25,
7952,0.29,
7953,0.22,
7954,0.15,
7955,0.19,
7956,0.44,
7957,0.92,
7958,1.54,
7959,2.16,
7960,2.62,
7961,2.79,
7962,2.65,
7963,2.25,
7964,1.67,
7965,1.01,
7966,0.39,
7967,-0.08,
7968,-0.33,
7969,-0.33,
7970,-0.13,
7971,0.14,
7972,0.32,
7973,0.25,
7974,-0.1,
7975,-0.67,
7976,-1.29,
7977,-1.82,
7978,-2.13,
7979,-2.19,
7980,-2.05,
7981,-1.78,
7982,-1.45,
7983,-1.11,
7984,-0.77,
7985,-0.46,
7986,-0.28,
7987,-0.31,
7988,-0.59,
7989,-1.06,
7990,-1.57,
7991,-1.86,
7992,-1.74,
7993,-1.15,
7994,-0.25,
7995,0.7,
7996,1.37,
7997,1.57,
7998,1.28,
7999,0.62,
8000,-0.17,
8001,-0.85,
8002,-1.27,
8003,-1.38,
8004,-1.27,
8005,-1.06,
8006,-0.87,
8007,-0.74,
8008,-0.61,
8009,-0.35,
8010,0.07,
8011,0.61,
8012,1.1,
8013,1.38,
8014,1.39,
8015,1.18,
8016,0.94,
8017,0.88,
8018,1.09,
8019,1.56,
8020,2.12,
8021,2.63,
8022,2.93,
8023,2.99,
8024,2.84,
8025,2.57,
8026,2.28,
8027,2.02,
8028,1.79,
8029,1.57,
8030,1.34,
8031,1.1,
8032,0.86,
8033,0.64,
8034,0.41,
8035,0.15,
8036,-0.17,
8037,-0.56,
8038,-0.98,
8039,-1.37,
8040,-1.71,
8041,-2.02,
8042,-2.34,
8043,-2.64,
8044,-2.83,
8045,-2.77,
8046,-2.34,
8047,-1.54,
8048,-0.58,
8049,0.31,
8050,0.85,
8051,0.95,
8052,0.68,
8053,0.23,
8054,-0.2,
8055,-0.47,
8056,-0.54,
8057,-0.43,
8058,-0.22,
8059,0.02,
8060,0.18,
8061,0.19,
8062,0.01,
8063,-0.33,
8064,-0.72,
8065,-1.06,
8066,-1.22,
8067,-1.18,
8068,-1.01,
8069,-0.79,
8070,-0.63,
8071,-0.53,
8072,-0.45,
8073,-0.34,
8074,-0.14,
8075,0.13,
8076,0.43,
8077,0.68,
8078,0.81,
8079,0.78,
8080,0.56,
8081,0.17,
8082,-0.32,
8083,-0.82,
8084,-1.18,
8085,-1.33,
8086,-1.21,
8087,-0.87,
8088,-0.42,
8089,-0.04,
8090,0.16,
8091,0.1,
8092,-0.19,
8093,-0.6,
8094,-1.04,
8095,-1.39,
8096,-1.62,
8097,-1.72,
8098,-1.71,
8099,-1.64,
8100,-1.59,
8101,-1.64,
8102,-1.83,
8103,-2.13,
8104,-2.45,
8105,-2.64,
8106,-2.58,
8107,-2.21,
8108,-1.55,
8109,-0.7,
8110,0.19,
8111,0.95,
8112,1.46,
8113,1.65,
8114,1.58,
8115,1.37,
8116,1.18,
8117,1.12,
8118,1.19,
8119,1.34,
8120,1.49,
8121,1.62,
8122,1.76,
8123,1.95,
8124,2.16,
8125,2.33,
8126,2.31,
8127,2.05,
8128,1.62,
8129,1.2,
8130,0.99,
8131,1.09,
8132,1.47,
8133,1.9,
8134,2.11,
8135,1.93,
8136,1.36,
8137,0.65,
8138,0.12,
8139,0.03,
8140,0.42,
8141,1.07,
8142,1.6,
8143,1.74,
8144,1.44,
8145,0.87,
8146,0.36,
8147,0.11,
8148,0.14,
8149,0.28,
8150,0.32,
8151,0.16,
8152,-0.1,
8153,-0.24,
8154,-0.1,
8155,0.32,
8156,0.82,
8157,1.1,
8158,0.98,
8159,0.45,
8160,-0.27,
8161,-0.87,
8162,-1.11,
8163,-0.93,
8164,-0.48,
8165,-0.02,
8166,0.26,
8167,0.3,
8168,0.2,
8169,0.12,
8170,0.15,
8171,0.28,
8172,0.4,
8173,0.4,
8174,0.23,
8175,-0.09,
8176,-0.47,
8177,-0.84,
8178,-1.15,
8179,-1.41,
8180,-1.62,
8181,-1.76,
8182,-1.81,
8183,-1.75,
8184,-1.57,
8185,-1.31,
8186,-1.04,
8187,-0.78,
8188,-0.58,
8189,-0.4,
8190,-0.24,
8191,-0.05,
8192,0.17,
8193,0.39,
8194,0.57,
8195,0.63,
8196,0.58,
8197,0.45,
8198,0.31,
8199,0.25,
8200,0.27,
8201,0.31,
8202,0.26,
8203,0.02,
8204,-0.45,
8205,-1.06,
8206,-1.66,
8207,-2.09,
8208,-2.27,
8209,-2.27,
8210,-2.17,
8211,-2.08,
8212,-2.02,
8213,-1.91,
8214,-1.63,
8215,-1.1,
8216,-0.38,
8217,0.35,
8218,0.89,
8219,1.08,
8220,0.92,
8221,0.58,
8222,0.29,
8223,0.2,
8224,0.3,
8225,0.47,
8226,0.55,
8227,0.44,
8228,0.19,
8229,-0.09,
8230,-0.32,
8231,-0.46,
8232,-0.5,
8233,-0.43,
8234,-0.2,
8235,0.2,
8236,0.77,
8237,1.35,
8238,1.74,
8239,1.78,
8240,1.43,
8241,0.86,
8242,0.29,
8243,-0.06,
8244,-0.16,
8245,-0.1,
8246,-0.02,
8247,-0.0,
8248,-0.03,
8249,0.03,
8250,0.25,
8251,0.59,
8252,0.95,
8253,1.12,
8254,1.04,
8255,0.68,
8256,0.19,
8257,-0.24,
8258,-0.46,
8259,-0.43,
8260,-0.23,
8261,-0.05,
8262,-0.04,
8263,-0.24,
8264,-0.54,
8265,-0.75,
8266,-0.74,
8267,-0.47,
8268,-0.09,
8269,0.21,
8270,0.27,
8271,0.04,
8272,-0.37,
8273,-0.82,
8274,-1.16,
8275,-1.32,
8276,-1.3,
8277,-1.14,
8278,-0.89,
8279,-0.59,
8280,-0.24,
8281,0.14,
8282,0.51,
8283,0.88,
8284,1.24,
8285,1.62,
8286,2.05,
8287,2.47,
8288,2.75,
8289,2.76,
8290,2.44,
8291,1.85,
8292,1.24,
8293,0.88,
8294,0.97,
8295,1.46,
8296,2.14,
8297,2.7,
8298,2.89,
8299,2.64,
8300,2.05,
8301,1.31,
8302,0.58,
8303,-0.01,
8304,-0.45,
8305,-0.73,
8306,-0.9,
8307,-0.97,
8308,-0.98,
8309,-0.98,
8310,-1.05,
8311,-1.21,
8312,-1.49,
8313,-1.83,
8314,-2.11,
8315,-2.23,
8316,-2.07,
8317,-1.62,
8318,-0.95,
8319,-0.23,
8320,0.35,
8321,0.64,
8322,0.58,
8323,0.23,
8324,-0.31,
8325,-0.92,
8326,-1.5,
8327,-1.99,
8328,-2.29,
8329,-2.38,
8330,-2.26,
8331,-1.99,
8332,-1.67,
8333,-1.38,
8334,-1.19,
8335,-1.09,
8336,-1.03,
8337,-0.92,
8338,-0.71,
8339,-0.38,
8340,0.08,
8341,0.6,
8342,1.15,
8343,1.65,
8344,2.07,
8345,2.35,
8346,2.48,
8347,2.44,
8348,2.25,
8349,1.95,
8350,1.57,
8351,1.15,
8352,0.73,
8353,0.31,
8354,-0.11,
8355,-0.52,
8356,-0.88,
8357,-1.11,
8358,-1.1,
8359,-0.77,
8360,-0.13,
8361,0.67,
8362,1.46,
8363,2.09,
8364,2.51,
8365,2.72,
8366,2.76,
8367,2.63,
8368,2.31,
8369,1.78,
8370,1.05,
8371,0.18,
8372,-0.71,
8373,-1.51,
8374,-2.11,
8375,-2.44,
8376,-2.44,
8377,-2.16,
8378,-1.68,
8379,-1.15,
8380,-0.7,
8381,-0.41,
8382,-0.24,
8383,-0.12,
8384,0.02,
8385,0.2,
8386,0.38,
8387,0.48,
8388,0.46,
8389,0.39,
8390,0.34,
8391,0.44,
8392,0.74,
8393,1.21,
8394,1.72,
8395,2.08,
8396,2.14,
8397,1.81,
8398,1.15,
8399,0.31,
8400,-0.51,
8401,-1.11,
8402,-1.37,
8403,-1.22,
8404,-0.72,
8405,0.03,
8406,0.86,
8407,1.62,
8408,2.21,
8409,2.58,
8410,2.76,
8411,2.81,
8412,2.81,
8413,2.8,
8414,2.81,
8415,2.81,
8416,2.83,
8417,2.91,
8418,3.09,
8419,3.37,
8420,3.69,
8421,3.91,
8422,3.94,
8423,3.74,
8424,3.39,
8425,3.02,
8426,2.77,
8427,2.66,
8428,2.63,
8429,2.52,
8430,2.18,
8431,1.53,
8432,0.62,
8433,-0.46,
8434,-1.56,
8435,-2.53,
8436,-3.31,
8437,-3.83,
8438,-4.12,
8439,-4.31,
8440,-4.52,
8441,-4.89,
8442,-5.47,
8443,-6.21,
8444,-6.99,
8445,-7.65,
8446,-8.11,
8447,-8.39,
8448,-8.51,
8449,-8.55,
8450,-8.5,
8451,-8.31,
8452,-7.95,
8453,-7.36,
8454,-6.5,
8455,-5.4,
8456,-4.14,
8457,-2.86,
8458,-1.68,
8459,-0.72,
8460,0.05,
8461,0.72,
8462,1.4,
8463,2.11,
8464,2.82,
8465,3.46,
8466,4.06,
8467,4.79,
8468,5.89,
8469,7.5,
8470,9.46,
8471,11.28,
8472,12.36,
8473,12.3,
8474,11.17,
8475,9.55,
8476,8.29,
8477,8.1,
8478,9.26,
8479,11.44,
8480,13.9,
8481,15.7,
8482,16.15,
8483,15.14,
8484,13.15,
8485,11.11,
8486,10.01,
8487,10.49,
8488,12.61,
8489,15.66,
8490,18.48,
8491,19.72,
8492,18.42,
8493,14.35,
8494,8.09,
8495,1.05,
8496,-5.08,
8497,-8.85,
8498,-10.08,
8499,-10.57,
8500,-14.53,
8501,-26.75,
8502,-50.4,
8503,-84.5,
8504,-122.84,
8505,-155.21,
8506,-171.13,
8507,-163.69,
8508,-132.29,
8509,-82.71,
8510,-24.63,
8511,31.53,
8512,76.95,
8513,105.83,
8514,115.37,
8515,106.45,
8516,84.17,
8517,56.88,
8518,33.99,
8519,22.07,
8520,21.92,
8521,28.72,
8522,35.05,
8523,34.61,
8524,25.59,
8525,10.73,
8526,-5.05,
8527,-17.29,
8528,-24.24,
8529,-26.62,
8530,-25.78,
8531,-22.35,
8532,-16.29,
8533,-7.23,
8534,3.92,
8535,15.0,
8536,23.35,
8537,26.81,
8538,24.59,
8539,17.71,
8540,8.44,
8541,-0.59,
8542,-6.75,
8543,-8.15,
8544,-3.94,
8545,5.91,
8546,19.62,
8547,33.48,
8548,42.69,
8549,42.84,
8550,32.51,
8551,14.24,
8552,-6.39,
8553,-23.31,
8554,-32.33,
8555,-32.87,
8556,-27.24,
8557,-19.28,
8558,-12.4,
8559,-8.05,
8560,-5.86,
8561,-4.45,
8562,-2.54,
8563,0.15,
8564,2.98,
8565,5.17,
8566,6.01,
8567,5.46,
8568,4.1,
8569,2.74,
8570,2.16,
8571,2.49,
8572,2.91,
8573,2.19,
8574,-0.72,
8575,-5.67,
8576,-11.32,
8577,-15.61,
8578,-16.84,
8579,-14.2,
8580,-8.52,
8581,-1.72,
8582,4.03,
8583,7.13,
8584,7.69,
8585,7.03,
8586,6.94,
8587,8.56,
8588,11.77,
8589,15.35,
8590,17.79,
8591,17.53,
8592,13.6,
8593,6.12,
8594,-3.47,
8595,-12.5,
8596,-17.86,
8597,-17.47,
8598,-11.32,
8599,-1.59,
8600,8.02,
8601,13.93,
8602,14.54,
8603,10.35,
8604,3.7,
8605,-2.71,
8606,-7.42,
8607,-10.24,
8608,-11.9,
8609,-13.02,
8610,-13.49,
8611,-12.74,
8612,-10.58,
8613,-7.42,
8614,-4.45,
8615,-2.7,
8616,-2.4,
8617,-2.81,
8618,-2.42,
8619,-0.23,
8620,3.78,
8621,8.25,
8622,11.42,
8623,12.08,
8624,10.12,
8625,6.58,
8626,2.85,
8627,0.11,
8628,-0.89,
8629,-0.07,
8630,2.07,
8631,4.68,
8632,6.74,
8633,7.54,
8634,7.11,
8635,6.0,
8636,5.07,
8637,4.74,
8638,4.68,
8639,4.31,
8640,2.91,
8641,0.54,
8642,-2.23,
8643,-4.71,
8644,-6.4,
8645,-7.41,
8646,-8.26,
8647,-9.2,
8648,-10.3,
8649,-11.11,
8650,-11.03,
8651,-9.89,
8652,-7.74,
8653,-5.15,
8654,-2.76,
8655,-1.07,
8656,-0.46,
8657,-0.84,
8658,-1.94,
8659,-3.39,
8660,-4.8,
8661,-6.02,
8662,-6.97,
8663,-7.75,
8664,-8.52,
8665,-9.4,
8666,-10.58,
8667,-12.12,
8668,-13.96,
8669,-15.98,
8670,-18.08,
8671,-20.31,
8672,-22.85,
8673,-25.77,
8674,-29.11,
8675,-32.86,
8676,-36.98,
8677,-41.62,
8678,-46.73,
8679,-52.12,
8680,-57.66,
8681,-63.0,
8682,-68.19,
8683,-73.46,
8684,-79.08,
8685,-85.4,
8686,-92.22,
8687,-99.12,
8688,-105.54,
8689,-111.07,
8690,-115.95,
8691,-120.66,
8692,-126.02,
8693,-132.79,
8694,-141.08,
8695,-150.27,
8696,-159.02,
8697,-165.42,
8698,-167.52,
8699,-163.57,
8700,-152.2,
8701,-132.94,
8702,-106.49,
8703,-74.39,
8704,-38.28,
8705,1.0,
8706,44.07,
8707,91.57,
8708,143.78,
8709,200.1,
8710,257.94,
8711,312.59,
8712,358.38,
8713,390.65,
8714,407.09,
8715,408.45,
8716,397.34,
8717,376.8,
8718,349.94,
8719,318.61,
8720,283.6,
8721,244.73,
8722,201.08,
8723,151.24,
8724,93.71,
8725,31.29,
8726,-34.55,
8727,-99.66,
8728,-157.79,
8729,-202.92,
8730,-232.1,
8731,-246.92,
8732,-252.81,
8733,-256.68,
8734,-263.41,
8735,-274.02,
8736,-284.49,
8737,-287.96,
8738,-277.17,
8739,-246.78,
8740,-194.67,
8741,-121.9,
8742,-31.98,
8743,66.61,
8744,162.86,
8745,245.92,
8746,306.87,
8747,340.98,
8748,348.21,
8749,332.55,
8750,300.36,
8751,258.46,
8752,212.64,
8753,167.2,
8754,125.52,
8755,89.41,
8756,59.95,
8757,37.43,
8758,21.02,
8759,9.11,
8760,-0.53,
8761,-10.46,
8762,-22.11,
8763,-34.77,
8764,-47.32,
8765,-58.68,
8766,-68.63,
8767,-77.97,
8768,-87.08,
8769,-94.47,
8770,-97.15,
8771,-91.8,
8772,-75.5,
8773,-50.96,
8774,-24.04,
8775,-1.64,
8776,11.07,
8777,13.19,
8778,8.5,
8779,1.99,
8780,-5.44,
8781,-12.17,
8782,-23.48,
8783,-44.22,
8784,-73.56,
8785,-102.9,
8786,-119.49,
8787,-110.21,
8788,-72.76,
8789,-18.55,
8790,33.09,
8791,64.95,
8792,72.22,
8793,63.25,
8794,51.99,
8795,47.84,
8796,50.2,
8797,50.49,
8798,41.22,
8799,24.05,
8800,9.54,
8801,11.22,
8802,35.92,
8803,77.64,
8804,119.81,
8805,144.14,
8806,139.33,
8807,106.54,
8808,57.65,
8809,7.91,
8810,-30.42,
8811,-52.52,
8812,-60.62,
8813,-60.89,
8814,-59.0,
8815,-57.96,
8816,-57.32,
8817,-54.95,
8818,-49.42,
8819,-41.52,
8820,-33.92,
8821,-29.61,
8822,-30.04,
8823,-34.17,
8824,-39.12,
8825,-41.7,
8826,-39.81,
8827,-33.58,
8828,-25.08,
8829,-17.25,
8830,-12.77,
8831,-13.31,
8832,-19.13,
8833,-28.76,
8834,-39.11,
8835,-45.96,
8836,-45.22,
8837,-34.71,
8838,-15.94,
8839,6.5,
8840,26.49,
8841,39.18,
8842,42.86,
8843,38.81,
8844,29.02,
8845,14.24,
8846,-6.8,
8847,-35.95,
8848,-72.48,
8849,-111.95,
8850,-147.0,
8851,-170.52,
8852,-178.74,
8853,-171.99,
8854,-153.57,
8855,-126.05,
8856,-91.98,
8857,-52.3,
8858,-8.43,
8859,36.43,
8860,77.73,
8861,111.29,
8862,134.71,
8863,147.23,
8864,148.92,
8865,139.24,
8866,118.0,
8867,86.24,
8868,47.55,
8869,7.81,
8870,-26.52,
8871,-50.62,
8872,-62.18,
8873,-61.54,
8874,-51.2,
8875,-34.54,
8876,-16.42,
8877,-2.48,
8878,1.97,
8879,-5.75,
8880,-23.69,
8881,-44.9,
8882,-59.95,
8883,-61.04,
8884,-45.43,
8885,-16.63,
8886,17.3,
8887,47.97,
8888,69.9,
8889,81.99,
8890,86.55,
8891,86.91,
8892,85.21,
8893,82.07,
8894,77.16,
8895,70.41,
8896,63.45,
8897,59.25,
8898,60.66,
8899,68.44,
8900,79.8,
8901,88.68,
8902,88.1,
8903,72.99,
8904,43.29,
8905,4.51,
8906,-34.24,
8907,-64.02,
8908,-79.7,
8909,-81.79,
8910,-75.44,
8911,-67.33,
8912,-62.57,
8913,-62.64,
8914,-65.85,
8915,-69.31,
8916,-70.79,
8917,-69.46,
8918,-65.27,
8919,-57.82,
8920,-45.84,
8921,-28.11,
8922,-4.98,
8923,20.34,
8924,41.89,
8925,53.12,
8926,49.85,
8927,32.51,
8928,6.28,
8929,-21.03,
8930,-42.28,
8931,-53.55,
8932,-54.85,
8933,-48.75,
8934,-38.03,
8935,-24.19,
8936,-7.51,
8937,11.89,
8938,32.85,
8939,52.85,
8940,69.05,
8941,79.84,
8942,85.7,
8943,88.98,
8944,92.19,
8945,96.21,
8946,99.38,
8947,98.14,
8948,88.76,
8949,69.75,
8950,43.04,
8951,13.59,
8952,-12.37,
8953,-29.94,
8954,-37.34,
8955,-36.29,
8956,-30.84,
8957,-25.28,
8958,-22.25,
8959,-22.03,
8960,-23.17,
8961,-23.74,
8962,-22.69,
8963,-20.26,
8964,-17.53,
8965,-15.56,
8966,-14.66,
8967,-14.11,
8968,-12.8,
8969,-9.97,
8970,-5.67,
8971,-0.81,
8972,3.51,
8973,6.47,
8974,8.04,
8975,8.85,
8976,9.95,
8977,12.14,
8978,15.65,
8979,20.13,
8980,24.7,
8981,28.59,
8982,31.3,
8983,32.81,
8984,33.48,
8985,33.8,
8986,33.95,
8987,33.77,
8988,32.71,
8989,30.16,
8990,25.72,
8991,19.41,
8992,11.59,
8993,2.95,
8994,-5.79,
8995,-14.22,
8996,-22.13,
8997,-29.17,
8998,-35.64,
8999,-41.4,
9000,-46.15,
9001,-49.51,
9002,-51.21,
9003,-51.24,
9004,-50.03,
9005,-48.3,
9006,-46.94,
9007,-46.26,
9008,-46.23,
9009,-46.45,
9010,-46.31,
9011,-45.42,
9012,-43.75,
9013,-41.78,
9014,-40.13,
9015,-39.36,
9016,-39.64,
9017,-40.9,
9018,-42.83,
9019,-45.14,
9020,-47.32,
9021,-48.57,
9022,-47.77,
9023,-43.82,
9024,-36.21,
9025,-25.47,
9026,-13.07,
9027,-1.09,
9028,8.69,
9029,15.28,
9030,18.6,
9031,19.12,
9032,17.48,
9033,14.29,
9034,9.99,
9035,5.35,
9036,1.34,
9037,-1.2,
9038,-1.71,
9039,-0.3,
9040,2.32,
9041,4.84,
9042,5.56,
9043,2.65,
9044,-4.98,
9045,-16.8,
9046,-30.21,
9047,-40.85,
9048,-44.32,
9049,-38.15,
9050,-23.17,
9051,-3.41,
9052,15.59,
9053,29.38,
9054,36.22,
9055,37.34,
9056,35.53,
9057,33.32,
9058,31.75,
9059,30.34,
9060,28.14,
9061,24.74,
9062,20.8,
9063,17.53,
9064,15.94,
9065,16.29,
9066,17.76,
9067,19.03,
9068,19.01,
9069,17.27,
9070,14.24,
9071,10.94,
9072,8.45,
9073,7.39,
9074,7.74,
9075,8.8,
9076,9.7,
9077,9.71,
9078,8.64,
9079,6.79,
9080,4.78,
9081,3.29,
9082,2.64,
9083,2.79,
9084,3.35,
9085,3.82,
9086,3.84,
9087,3.27,
9088,2.31,
9089,1.26,
9090,0.44,
9091,0.01,
9092,-0.06,
9093,0.05,
9094,0.13,
9095,0.02,
9096,-0.31,
9097,-0.78,
9098,-1.25,
9099,-1.64,
9100,-1.9,
9101,-2.04,
9102,-2.16,
9103,-2.33,
9104,-2.59,
9105,-2.94,
9106,-3.34,
9107,-3.78,
9108,-4.2,
9109,-4.64,
9110,-5.12,
9111,-5.68,
9112,-6.36,
9113,-7.14,
9114,-7.97,
9115,-8.83,
9116,-9.64,
9117,-10.41,
9118,-11.17,
9119,-11.98,
9120,-12.98,
9121,-14.2,
9122,-15.63,
9123,-17.15,
9124,-18.59,
9125,-19.8,
9126,-20.72,
9127,-21.42,
9128,-22.03,
9129,-22.73,
9130,-23.55,
9131,-24.36,
9132,-24.78,
9133,-24.39,
9134,-22.82,
9135,-19.95,
9136,-16.0,
9137,-11.47,
9138,-6.93,
9139,-2.83,
9140,0.7,
9141,4.03,
9142,7.71,
9143,12.22,
9144,17.75,
9145,24.05,
9146,30.51,
9147,36.52,
9148,41.61,
9149,45.78,
9150,49.41,
9151,53.15,
9152,57.69,
9153,63.62,
9154,71.27,
9155,80.39,
9156,89.89,
9157,97.71,
9158,101.25,
9159,98.12,
9160,87.05,
9161,68.62,
9162,45.11,
9163,19.76,
9164,-4.24,
9165,-24.6,
9166,-40.18,
9167,-50.7,
9168,-56.29,
9169,-57.28,
9170,-54.28,
9171,-48.58,
9172,-42.14,
9173,-37.25,
9174,-35.63,
9175,-37.82,
9176,-42.84,
9177,-48.63,
9178,-52.89,
9179,-54.15,
9180,-52.47,
9181,-49.36,
9182,-47.11,
9183,-47.67,
9184,-51.97,
9185,-59.73,
9186,-69.85,
9187,-80.55,
9188,-89.73,
9189,-95.28,
9190,-95.41,
9191,-89.31,
9192,-77.79,
9193,-63.43,
9194,-49.71,
9195,-39.39,
9196,-32.83,
9197,-27.92,
9198,-21.38,
9199,-10.84,
9200,3.7,
9201,19.82,
9202,34.11,
9203,44.29,
9204,48.99,
9205,48.98,
9206,46.61,
9207,44.4,
9208,43.87,
9209,44.74,
9210,44.93,
9211,41.36,
9212,31.42,
9213,14.46,
9214,-7.28,
9215,-29.2,
9216,-46.33,
9217,-55.69,
9218,-58.07,
9219,-57.76,
9220,-60.12,
9221,-68.44,
9222,-81.64,
9223,-94.13,
9224,-98.2,
9225,-87.51,
9226,-59.89,
9227,-18.22,
9228,30.87,
9229,79.31,
9230,120.02,
9231,148.08,
9232,161.09,
9233,158.41,
9234,140.6,
9235,109.26,
9236,67.5,
9237,20.21,
9238,-26.35,
9239,-66.14,
9240,-95.39,
9241,-114.23,
9242,-126.66,
9243,-138.84,
9244,-155.88,
9245,-178.88,
9246,-203.9,
9247,-223.42,
9248,-229.72,
9249,-218.52,
9250,-190.79,
9251,-152.24,
9252,-110.63,
9253,-72.38,
9254,-40.36,
9255,-13.51,
9256,11.65,
9257,39.05,
9258,71.35,
9259,109.36,
9260,152.05,
9261,196.67,
9262,238.84,
9263,272.82,
9264,292.94,
9265,295.86,
9266,282.97,
9267,261.14,
9268,240.66,
9269,230.9,
9270,235.55,
9271,250.62,
9272,266.42,
9273,272.79,
9274,264.42,
9275,243.22,
9276,216.91,
9277,194.95,
9278,184.56,
9279,188.75,
9280,206.67,
9281,234.97,
9282,269.34,
9283,304.86,
9284,335.98,
9285,357.03,
9286,363.56,
9287,353.79,
9288,329.28,
9289,294.36,
9290,254.16,
9291,213.78,
9292,177.08,
9293,146.13,
9294,120.83,
9295,99.12,
9296,77.68,
9297,52.94,
9298,22.55,
9299,-14.41,
9300,-55.89,
9301,-98.14,
9302,-137.68,
9303,-173.22,
9304,-206.41,
9305,-240.85,
9306,-281.15,
9307,-331.29,
9308,-394.71,
9309,-470.82,
9310,-554.92,
9311,-638.49,
9312,-711.38,
9313,-764.28,
9314,-790.92,
9315,-790.39,
9316,-766.45,
9317,-726.89,
9318,-676.69,
9319,-616.83,
9320,-544.72,
9321,-458.19,
9322,-359.15,
9323,-254.8,
9324,-156.83,
9325,-66.77,
9326,7.4,
9327,59.58,
9328,89.84,
9329,107.12,
9330,124.4,
9331,150.67,
9332,191.78,
9333,247.73,
9334,314.55,
9335,383.84,
9336,448.66,
9337,498.87,
9338,526.52,
9339,528.6,
9340,508.41,
9341,474.86,
9342,438.3,
9343,407.6,
9344,380.34,
9345,354.94,
9346,329.6,
9347,304.04,
9348,280.59,
9349,262.42,
9350,253.07,
9351,249.05,
9352,245.27,
9353,236.48,
9354,221.11,
9355,199.72,
9356,172.68,
9357,140.84,
9358,105.14,
9359,66.75,
9360,26.54,
9361,-14.12,
9362,-54.44,
9363,-92.97,
9364,-128.84,
9365,-164.56,
9366,-202.39,
9367,-243.37,
9368,-287.06,
9369,-332.66,
9370,-379.19,
9371,-425.92,
9372,-471.26,
9373,-513.23,
9374,-553.62,
9375,-593.07,
9376,-630.51,
9377,-663.02,
9378,-687.39,
9379,-701.0,
9380,-702.39,
9381,-690.65,
9382,-640.24,
9383,-540.12,
9384,-396.71,
9385,-232.62,
9386,-74.3,
9387,59.78,
9388,162.73,
9389,236.09,
9390,285.78,
9391,318.54,
9392,336.21,
9393,340.24,
9394,332.81,
9395,317.41,
9396,297.61,
9397,275.63,
9398,251.89,
9399,226.09,
9400,199.61,
9401,171.45,
9402,143.94,
9403,122.26,
9404,112.11,
9405,116.21,
9406,132.23,
9407,153.62,
9408,172.85,
9409,184.67,
9410,185.93,
9411,177.46,
9412,162.49,
9413,144.72,
9414,126.7,
9415,109.41,
9416,92.9,
9417,77.37,
9418,61.29,
9419,43.87,
9420,25.07,
9421,5.2,
9422,-15.41,
9423,-36.39,
9424,-57.21,
9425,-77.0,
9426,-94.63,
9427,-108.56,
9428,-118.02,
9429,-123.2,
9430,-125.15,
9431,-125.63,
9432,-125.69,
9433,-125.86,
9434,-126.08,
9435,-125.8,
9436,-123.76,
9437,-118.99,
9438,-111.34,
9439,-101.99,
9440,-92.15,
9441,-81.93,
9442,-71.4,
9443,-60.43,
9444,-48.62,
9445,-34.84,
9446,-18.14,
9447,1.76,
9448,24.52,
9449,48.54,
9450,73.77,
9451,99.81,
9452,126.04,
9453,146.2,
9454,158.09,
9455,161.38,
9456,156.48,
9457,149.73,
9458,140.23,
9459,127.86,
9460,112.11,
9461,92.57,
9462,69.16,
9463,42.77,
9464,14.72,
9465,-13.62,
9466,-40.9,
9467,-73.22,
9468,-109.51,
9469,-146.84,
9470,-182.0,
9471,-210.28,
9472,-231.25,
9473,-245.49,
9474,-253.79,
9475,-256.8,
9476,-256.79,
9477,-253.82,
9478,-248.5,
9479,-241.8,
9480,-234.73,
9481,-228.08,
9482,-222.08,
9483,-216.83,
9484,-212.38,
9485,-209.21,
9486,-206.4,
9487,-203.51,
9488,-200.46,
9489,-197.27,
9490,-193.99,
9491,-190.32,
9492,-185.93,
9493,-180.55,
9494,-174.31,
9495,-166.58,
9496,-157.2,
9497,-146.3,
9498,-134.18,
9499,-121.27,
9500,-107.8,
9501,-93.95,
9502,-79.96,
9503,-66.18,
9504,-52.57,
9505,-39.22,
9506,-26.32,
9507,-14.0,
9508,-2.45,
9509,8.35,
9510,18.42,
9511,27.81,
9512,36.47,
9513,44.46,
9514,51.75,
9515,58.25,
9516,63.9,
9517,68.62,
9518,72.38,
9519,75.22,
9520,77.1,
9521,78.01,
9522,77.92,
9523,76.87,
9524,74.95,
9525,72.36,
9526,69.35,
9527,66.2,
9528,63.12,
9529,60.24,
9530,57.55,
9531,55.0,
9532,52.53,
9533,50.15,
9534,48.04,
9535,46.43,
9536,45.58,
9537,45.63,
9538,46.49,
9539,47.9,
9540,49.48,
9541,50.97,
9542,52.34,
9543,53.92,
9544,56.29,
9545,60.07,
9546,65.66,
9547,73.01,
9548,81.61,
9549,90.69,
9550,99.54,
9551,107.94,
9552,116.25,
9553,125.36,
9554,136.28,
9555,149.65,
9556,165.41,
9557,182.74,
9558,200.4,
9559,217.17,
9560,232.48,
9561,246.53,
9562,260.39,
9563,275.63,
9564,293.92,
9565,316.51,
9566,343.53,
9567,373.47,
9568,403.13,
9569,428.17,
9570,444.39,
9571,449.13,
9572,442.29,
9573,426.37,
9574,405.47,
9575,383.73,
9576,363.87,
9577,346.14,
9578,328.34,
9579,306.58,
9580,276.89,
9581,237.02,
9582,187.68,
9583,132.94,
9584,79.06,
9585,32.5,
9586,-2.28,
9587,-24.07,
9588,-34.63,
9589,-37.21,
9590,-34.9,
9591,-29.72,
9592,-22.78,
9593,-15.03,
9594,-7.74,
9595,-2.34,
9596,0.41,
9597,1.09,
9598,1.42,
9599,3.33,
9600,7.8,
9601,14.1,
9602,19.93,
9603,22.38,
9604,19.12,
9605,9.34,
9606,-5.84,
9607,-23.92,
9608,-41.93,
9609,-57.5,
9610,-69.58,
9611,-78.7,
9612,-86.62,
9613,-95.74,
9614,-108.6,
9615,-127.42,
9616,-153.69,
9617,-187.68,
9618,-227.88,
9619,-270.63,
9620,-310.63,
9621,-342.09,
9622,-360.43,
9623,-363.98,
9624,-354.56,
9625,-337.04,
9626,-317.91,
9627,-303.3,
9628,-297.14,
9629,-299.92,
9630,-308.51,
9631,-317.2,
9632,-319.51,
9633,-310.3,
9634,-286.94,
9635,-249.4,
9636,-199.17,
9637,-137.91,
9638,-66.86,
9639,12.75,
9640,98.47,
9641,185.81,
9642,268.55,
9643,340.41,
9644,396.88,
9645,436.28,
9646,459.7,
9647,469.53,
9648,468.26,
9649,457.74,
9650,439.15,
9651,413.53,
9652,382.08,
9653,346.22,
9654,307.69,
9655,268.37,
9656,229.94,
9657,193.71,
9658,160.15,
9659,128.7,
9660,97.64,
9661,64.44,
9662,26.78,
9663,-15.92,
9664,-61.01,
9665,-102.14,
9666,-130.05,
9667,-135.29,
9668,-111.99,
9669,-61.02,
9670,8.81,
9671,82.88,
9672,145.41,
9673,184.73,
9674,196.73,
9675,184.91,
9676,157.29,
9677,121.93,
9678,83.75,
9679,43.64,
9680,0.14,
9681,-47.79,
9682,-98.66,
9683,-147.59,
9684,-187.26,
9685,-209.96,
9686,-209.89,
9687,-185.01,
9688,-137.99,
9689,-75.73,
9690,-7.7,
9691,56.63,
9692,110.18,
9693,149.91,
9694,176.92,
9695,195.09,
9696,209.31,
9697,223.67,
9698,240.49,
9699,260.05,
9700,280.66,
9701,298.93,
9702,310.42,
9703,310.78,
9704,297.22,
9705,269.91,
9706,232.25,
9707,189.66,
9708,147.44,
9709,108.51,
9710,72.4,
9711,35.65,
9712,-6.57,
9713,-58.16,
9714,-120.36,
9715,-190.98,
9716,-264.5,
9717,-333.03,
9718,-388.05,
9719,-422.59,
9720,-433.59,
9721,-423.39,
9722,-399.18,
9723,-370.62,
9724,-346.17,
9725,-329.92,
9726,-320.25,
9727,-311.28,
9728,-296.1,
9729,-270.26,
9730,-233.58,
9731,-189.99,
9732,-145.79,
9733,-107.58,
9734,-80.84,
9735,-68.96,
9736,-72.61,
9737,-89.17,
9738,-112.92,
9739,-136.35,
9740,-152.69,
9741,-158.8,
9742,-156.32,
9743,-150.83,
9744,-149.0,
9745,-155.11,
9746,-168.97,
9747,-186.38,
9748,-201.26,
9749,-208.76,
9750,-207.1,
9751,-197.7,
9752,-183.61,
9753,-167.96,
9754,-152.66,
9755,-138.25,
9756,-124.41,
9757,-110.62,
9758,-96.49,
9759,-81.63,
9760,-65.09,
9761,-45.24,
9762,-19.96,
9763,12.15,
9764,50.67,
9765,92.75,
9766,133.68,
9767,168.45,
9768,193.6,
9769,208.3,
9770,213.9,
9771,212.76,
9772,207.18,
9773,199.0,
9774,189.95,
9775,182.0,
9776,176.94,
9777,175.43,
9778,176.06,
9779,175.55,
9780,170.11,
9781,157.48,
9782,138.05,
9783,114.53,
9784,90.41,
9785,68.23,
9786,48.84,
9787,31.76,
9788,16.16,
9789,1.59,
9790,-11.98,
9791,-24.63,
9792,-36.54,
9793,-47.84,
9794,-58.24,
9795,-67.11,
9796,-73.97,
9797,-79.07,
9798,-83.35,
9799,-87.7,
9800,-92.0,
9801,-94.78,
9802,-94.01,
9803,-88.5,
9804,-79.12,
9805,-68.68,
9806,-60.68,
9807,-57.41,
9808,-58.89,
9809,-62.86,
9810,-66.06,
9811,-65.82,
9812,-61.36,
9813,-53.94,
9814,-46.1,
9815,-40.41,
9816,-38.21,
9817,-39.09,
9818,-41.17,
9819,-42.15,
9820,-40.49,
9821,-36.18,
9822,-30.67,
9823,-26.06,
9824,-23.97,
9825,-24.78,
9826,-27.48,
9827,-30.29,
9828,-31.58,
9829,-30.49,
9830,-27.14,
9831,-22.26,
9832,-16.57,
9833,-10.31,
9834,-2.96,
9835,6.29,
9836,17.85,
9837,30.82,
9838,42.54,
9839,49.14,
9840,46.89,
9841,33.78,
9842,10.61,
9843,-19.16,
9844,-50.43,
9845,-78.09,
9846,-98.32,
9847,-109.39,
9848,-111.72,
9849,-107.24,
9850,-98.87,
9851,-89.41,
9852,-80.74,
9853,-73.24,
9854,-65.78,
9855,-56.44,
9856,-43.86,
9857,-28.76,
9858,-14.44,
9859,-5.79,
9860,-6.83,
9861,-18.05,
9862,-35.04,
9863,-49.45,
9864,-52.17,
9865,-37.38,
9866,-5.53,
9867,36.41,
9868,77.32,
9869,106.18,
9870,115.84,
9871,104.97,
9872,77.72,
9873,41.46,
9874,4.11,
9875,-27.98,
9876,-50.98,
9877,-63.49,
9878,-65.91,
9879,-59.72,
9880,-47.0,
9881,-29.89,
9882,-10.43,
9883,9.66,
9884,29.19,
9885,47.46,
9886,64.19,
9887,79.3,
9888,92.82,
9889,104.79,
9890,115.27,
9891,124.44,
9892,132.56,
9893,140.09,
9894,147.53,
9895,155.4,
9896,164.16,
9897,174.09,
9898,184.95,
9899,195.78,
9900,204.77,
9901,209.56,
9902,208.01,
9903,199.13,
9904,183.59,
9905,163.69,
9906,142.66,
9907,123.47,
9908,107.84,
9909,95.65,
9910,85.35,
9911,74.93,
9912,63.01,
9913,49.39,
9914,34.69,
9915,19.39,
9916,2.97,
9917,-15.87,
9918,-38.11,
9919,-62.96,
9920,-87.16,
9921,-105.75,
9922,-114.05,
9923,-109.69,
9924,-93.78,
9925,-70.34,
9926,-44.44,
9927,-20.14,
9928,0.62,
9929,17.85,
9930,32.4,
9931,44.7,
9932,54.3,
9933,60.05,
9934,60.89,
9935,56.72,
9936,48.77,
9937,39.22,
9938,30.52,
9939,24.49,
9940,21.87,
9941,22.44,
9942,25.5,
9943,30.48,
9944,37.05,
9945,44.92,
9946,53.41,
9947,61.31,
9948,67.03,
9949,69.29,
9950,67.61,
9951,62.55,
9952,55.48,
9953,47.93,
9954,40.94,
9955,34.8,
9956,29.13,
9957,23.36,
9958,17.26,
9959,11.2,
9960,5.92,
9961,1.88,
9962,-1.46,
9963,-5.95,
9964,-14.33,
9965,-29.02,
9966,-50.76,
9967,-77.65,
9968,-105.24,
9969,-127.67,
9970,-139.46,
9971,-137.13,
9972,-120.18,
9973,-90.96,
9974,-53.73,
9975,-13.7,
9976,23.99,
9977,54.96,
9978,76.3,
9979,86.98,
9980,88.06,
9981,82.36,
9982,73.44,
9983,64.33,
9984,56.24,
9985,48.04,
9986,36.92,
9987,20.11,
9988,-3.31,
9989,-31.24,
9990,-58.92,
9991,-80.71,
9992,-92.41,
9993,-93.09,
9994,-85.36,
9995,-74.12,
9996,-64.63,
9997,-60.64,
9998,-63.73,
9999,-73.57,
10000,-88.93,
10001,-108.43,
10002,-130.62,
10003,-153.35,
10004,-173.38,
10005,-186.58,
10006,-189.22,
10007,-179.7,
10008,-159.63,
10009,-133.59,
10010,-107.21,
10011,-84.66,
10012,-66.85,
10013,-51.35,
10014,-34.18,
10015,-12.35,
10016,14.27,
10017,42.64,
10018,67.84,
10019,85.49,
10020,93.72,
10021,94.12,
10022,91.15,
10023,90.34,
10024,96.19,
10025,110.45,
10026,131.69,
10027,156.26,
10028,180.11,
10029,200.63,
10030,217.62,
10031,232.68,
10032,247.83,
10033,263.68,
10034,278.67,
10035,289.34,
10036,291.86,
10037,283.85,
10038,265.47,
10039,239.55,
10040,210.31,
10041,181.55,
10042,154.96,
10043,129.71,
10044,103.21,
10045,72.96,
10046,38.18,
10047,0.28,
10048,-38.0,
10049,-74.08,
10050,-106.68,
10051,-135.87,
10052,-162.02,
10053,-184.79,
10054,-202.85,
10055,-214.55,
10056,-218.95,
10057,-216.36,
10058,-208.19,
10059,-196.08,
10060,-181.19,
10061,-164.22,
10062,-145.49,
10063,-125.51,
10064,-105.07,
10065,-85.23,
10066,-67.05,
10067,-51.48,
10068,-39.07,
10069,-29.72,
10070,-22.52,
10071,-15.79,
10072,-7.62,
10073,3.11,
10074,15.9,
10075,28.49,
10076,37.53,
10077,40.05,
10078,34.8,
10079,23.07,
10080,8.16,
10081,-6.05,
10082,-16.92,
10083,-24.1,
10084,-29.43,
10085,-35.62,
10086,-44.4,
10087,-55.34,
10088,-66.3,
10089,-74.71,
10090,-79.41,
10091,-81.12,
10092,-81.45,
10093,-81.14,
10094,-78.92,
10095,-72.06,
10096,-58.53,
10097,-39.14,
10098,-18.4,
10099,-2.93,
10100,1.69,
10101,-6.43,
10102,-24.62,
10103,-47.32,
10104,-68.45,
10105,-83.69,
10106,-90.97,
10107,-89.87,
10108,-80.69,
10109,-64.32,
10110,-43.03,
10111,-21.01,
10112,-3.72,
10113,4.09,
10114,0.57,
10115,-11.9,
10116,-27.63,
10117,-40.03,
10118,-44.45,
10119,-39.77,
10120,-28.31,
10121,-14.06,
10122,-0.73,
10123,9.6,
10124,16.56,
10125,20.74,
10126,22.81,
10127,23.31,
10128,22.86,
10129,22.86,
10130,25.27,
10131,31.92,
10132,43.31,
10133,57.89,
10134,72.44,
10135,83.28,
10136,88.11,
10137,87.01,
10138,82.06,
10139,75.86,
10140,69.78,
10141,63.4,
10142,55.19,
10143,43.97,
10144,29.93,
10145,14.47,
10146,-0.54,
10147,-13.69,
10148,-24.05,
10149,-30.63,
10150,-31.92,
10151,-26.01,
10152,-11.7,
10153,10.18,
10154,36.14,
10155,60.73,
10156,78.37,
10157,85.41,
10158,81.27,
10159,68.49,
10160,51.41,
10161,34.56,
10162,21.36,
10163,13.37,
10164,10.11,
10165,9.11,
10166,6.41,
10167,-2.61,
10168,-21.61,
10169,-51.38,
10170,-88.46,
10171,-125.3,
10172,-152.62,
10173,-163.32,
10174,-155.89,
10175,-135.69,
10176,-113.11,
10177,-99.48,
10178,-102.31,
10179,-122.17,
10180,-152.73,
10181,-183.55,
10182,-204.46,
10183,-209.24,
10184,-197.56,
10185,-174.32,
10186,-147.35,
10187,-124.35,
10188,-110.19,
10189,-105.62,
10190,-107.47,
10191,-110.22,
10192,-108.26,
10193,-98.05,
10194,-79.37,
10195,-55.34,
10196,-31.36,
10197,-13.52,
10198,-6.86,
10199,-14.02,
10200,-34.65,
10201,-65.44,
10202,-101.09,
10203,-135.44,
10204,-162.49,
10205,-177.35,
10206,-176.86,
10207,-160.25,
10208,-129.44,
10209,-89.13,
10210,-46.09,
10211,-7.46,
10212,21.35,
10213,38.63,
10214,46.94,
10215,52.29,
10216,61.7,
10217,80.43,
10218,109.92,
10219,147.3,
10220,186.43,
10221,220.13,
10222,242.26,
10223,249.22,
10224,240.51,
10225,218.39,
10226,187.06,
10227,151.68,
10228,117.62,
10229,89.89,
10230,72.59,
10231,68.27,
10232,77.07,
10233,96.18,
10234,120.31,
10235,143.12,
10236,159.2,
10237,165.76,
10238,163.07,
10239,153.45,
10240,139.91,
10241,125.01,
10242,110.59,
10243,98.05,
10244,88.41,
10245,81.84,
10246,76.96,
10247,70.89,
10248,60.45,
10249,43.81,
10250,21.59,
10251,-3.75,
10252,-29.53,
10253,-54.11,
10254,-77.32,
10255,-99.26,
10256,-118.8,
10257,-133.4,
10258,-140.47,
10259,-139.32,
10260,-132.26,
10261,-123.62,
10262,-117.16,
10263,-113.99,
10264,-112.28,
10265,-108.72,
10266,-101.11,
10267,-90.09,
10268,-78.9,
10269,-71.76,
10270,-71.35,
10271,-77.1,
10272,-85.52,
10273,-91.69,
10274,-90.66,
10275,-79.21,
10276,-56.8,
10277,-25.84,
10278,8.27,
10279,38.48,
10280,58.18,
10281,61.64,
10282,45.36,
10283,10.28,
10284,-37.64,
10285,-88.1,
10286,-128.92,
10287,-150.49,
10288,-148.36,
10289,-122.68,
10290,-79.68,
10291,-29.6,
10292,18.13,
10293,57.06,
10294,84.47,
10295,100.13,
10296,102.77,
10297,90.45,
10298,64.65,
10299,28.12,
10300,-14.81,
10301,-56.14,
10302,-86.88,
10303,-99.78,
10304,-92.56,
10305,-71.43,
10306,-47.83,
10307,-30.3,
10308,-25.51,
10309,-37.17,
10310,-63.48,
10311,-100.23,
10312,-142.45,
10313,-173.7,
10314,-180.43,
10315,-176.97,
10316,-171.52,
10317,-159.18,
10318,-138.67,
10319,-110.61,
10320,-79.32,
10321,-50.83,
10322,-30.98,
10323,-25.27,
10324,-35.55,
10325,-54.86,
10326,-74.67,
10327,-88.13,
10328,-81.99,
10329,-50.59,
10330,2.97,
10331,68.15,
10332,130.58,
10333,175.23,
10334,202.92,
10335,217.59,
10336,221.78,
10337,217.68,
10338,206.28,
10339,188.98,
10340,168.11,
10341,145.31,
10342,121.42,
10343,98.87,
10344,78.62,
10345,61.07,
10346,47.67,
10347,39.26,
10348,35.97,
10349,36.8,
10350,39.3,
10351,40.69,
10352,39.97,
10353,36.09,
10354,28.41,
10355,17.61,
10356,4.99,
10357,-7.17,
10358,-16.0,
10359,-19.16,
10360,-15.67,
10361,-5.87,
10362,7.62,
10363,21.29,
10364,32.21,
10365,38.46,
10366,39.6,
10367,36.38,
10368,30.35,
10369,23.28,
10370,16.9,
10371,12.06,
